  -2.1350054e+02  -3.7535327e+02  -4.6203549e+02  -4.4275690e+02  -3.1479675e+02  -1.0890639e+02   1.1074638e+02   2.7129772e+02   3.1713290e+02   2.3154842e+02   4.2153132e+01  -1.8928438e+02  -3.9277310e+02  -5.0750140e+02  -5.0408326e+02  -3.8435604e+02  -1.8129991e+02   5.2494427e+01   2.5735672e+02   3.7529689e+02   3.6928559e+02   2.3406118e+02   1.6280211e+00  -2.6640903e+02  -4.9259112e+02  -6.0830425e+02  -5.7773996e+02  -4.0951264e+02  -1.5374472e+02   1.0951961e+02   3.0291482e+02   3.6997356e+02   2.9339860e+02   1.0125929e+02  -1.4237975e+02  -3.6282510e+02  -4.9293480e+02  -4.9553747e+02  -3.7673822e+02  -1.7753501e+02   4.2017561e+01   2.1682463e+02   3.0129970e+02   2.7576761e+02   1.4866282e+02  -4.8451018e+01  -2.6906380e+02  -4.5916912e+02  -5.6793624e+02  -5.6190817e+02  -4.3203007e+02  -2.0917239e+02   5.0148142e+01   2.6930982e+02   3.8203692e+02   3.5414187e+02   1.9630173e+02  -3.6796048e+01  -2.6552967e+02  -4.1356664e+02  -4.3267526e+02  -3.1968850e+02  -1.1388157e+02   1.2219718e+02   3.2134810e+02   4.3125578e+02   4.3127035e+02   3.2628051e+02   1.4753300e+02  -5.9829251e+01  -2.4475397e+02  -3.5685255e+02  -3.6287043e+02  -2.5226615e+02  -4.9401027e+01   1.9114421e+02   3.9574182e+02   4.9710874e+02   4.5928807e+02   2.9486444e+02   5.9594297e+01  -1.6730095e+02  -3.1122399e+02  -3.2915430e+02  -2.2097967e+02  -2.4344232e+01   2.0410825e+02   4.0215007e+02   5.2059383e+02   5.2645739e+02   4.1442463e+02   2.0129624e+02  -6.2978344e+01  -3.0908499e+02  -4.6508272e+02  -4.8138390e+02  -3.5206914e+02  -1.2085370e+02   1.3297783e+02   3.2844566e+02   4.0736449e+02   3.5479178e+02   1.9395403e+02  -2.1354381e+01  -2.3384920e+02  -3.9050958e+02  -4.5355766e+02  -4.0414789e+02  -2.5278324e+02  -4.0164033e+01   1.7275811e+02   3.1419514e+02   3.3177940e+02   2.1336432e+02  -9.0632076e+00  -2.6692913e+02  -4.8261944e+02  -5.9625016e+02  -5.7894622e+02  -4.4263161e+02  -2.2649714e+02   9.7031670e+00   2.0243522e+02   2.9710901e+02   2.6304567e+02   1.0707858e+02  -1.2739800e+02  -3.7006519e+02  -5.4633194e+02  -6.0559772e+02  -5.3754810e+02  -3.7135106e+02  -1.6326182e+02   2.2784223e+01   1.3839973e+02   1.5520821e+02   7.1180538e+01  -9.5736737e+01  -3.0346377e+02  -4.9882470e+02  -6.2412307e+02  -6.3657050e+02  -5.2450191e+02  -3.1740110e+02  -7.6713538e+01   1.2161362e+02   2.1181235e+02   1.6149388e+02  -1.8330897e+01  -2.7574529e+02  -5.3122707e+02  -7.0820840e+02  -7.5053455e+02  -6.4419859e+02  -4.2209348e+02  -1.5312012e+02   8.4931653e+01   2.2664480e+02   2.4381036e+02   1.4639349e+02  -2.6109649e+01  -2.2288092e+02  -3.9345256e+02  -4.9929274e+02  -5.1662517e+02  -4.3732099e+02  -2.7371410e+02  -6.2114752e+01   1.4021548e+02   2.7167880e+02   2.8284735e+02   1.6306502e+02  -5.5357114e+01  -3.0483291e+02  -5.0569184e+02  -5.9259076e+02  -5.3551057e+02  -3.5297800e+02  -9.6692859e+01   1.5618747e+02   3.3214615e+02   3.8226273e+02   2.9253784e+02   9.2723805e+01  -1.5545721e+02  -3.7675507e+02  -5.0703521e+02  -5.1344878e+02  -4.0388010e+02  -2.1836672e+02  -1.7088341e+01   1.4146285e+02   2.1325762e+02   1.8173050e+02   5.8092705e+01  -1.2472575e+02  -3.1618242e+02  -4.5404535e+02  -4.8692856e+02  -3.8177305e+02  -1.4478667e+02   1.8416426e+02   5.3165715e+02   8.2250073e+02   9.9974909e+02   1.0464182e+03   9.8191570e+02   8.5889059e+02   7.3627702e+02   6.6486509e+02   6.6803299e+02   7.4494039e+02   8.6362064e+02   9.7253660e+02   1.0111396e+03   9.2764676e+02   6.9731670e+02   3.3522518e+02  -1.0629338e+02  -5.4538110e+02  -8.9946931e+02  -1.1010212e+03  -1.1245005e+03  -9.8395352e+02  -7.3102245e+02  -4.3726314e+02  -1.7944698e+02  -1.9262948e+01   1.1994842e+01  -7.9381927e+01  -2.5193705e+02  -4.3949745e+02  -5.7044682e+02  -5.8822875e+02  -4.7470964e+02  -2.5481529e+02   1.2321336e+01   2.4742012e+02   3.7965771e+02   3.7312193e+02   2.3404427e+02   1.0831429e+01  -2.2612587e+02  -4.0592220e+02  -4.8282727e+02  -4.3648921e+02  -2.8395015e+02  -6.3139790e+01   1.6744063e+02   3.4729138e+02   4.2437727e+02   3.6785351e+02   1.8779534e+02  -6.6726674e+01  -3.1780152e+02  -4.8597018e+02  -5.1907747e+02  -4.1023569e+02  -1.9915878e+02   4.5085515e+01   2.4879478e+02   3.6026174e+02   3.5662547e+02   2.4577594e+02   5.8160260e+01  -1.5673083e+02  -3.4542644e+02  -4.5513046e+02  -4.4926060e+02  -3.2406930e+02  -1.1384231e+02   1.1980414e+02   3.0413348e+02   3.7972154e+02   3.2446977e+02   1.5583475e+02  -7.4545367e+01  -3.0057347e+02  -4.5579911e+02  -4.9837760e+02  -4.1438956e+02  -2.2765760e+02   8.0552734e+00   2.2250759e+02   3.5063633e+02   3.5372795e+02   2.3185135e+02   2.3249120e+01  -2.1271152e+02  -4.1040681e+02  -5.1676199e+02  -5.0826587e+02  -3.8627709e+02  -1.8494033e+02   4.2960420e+01   2.2997000e+02   3.1753799e+02   2.7652663e+02   1.1515856e+02  -1.1460267e+02  -3.4018139e+02  -4.9221135e+02  -5.2758302e+02  -4.4518477e+02  -2.7634506e+02  -7.1680822e+01   1.1386903e+02   2.3648764e+02   2.6276177e+02   1.8349440e+02   9.6127689e+00  -2.1939496e+02  -4.4304703e+02  -5.9265032e+02  -6.1857370e+02  -5.0901004e+02  -2.9839638e+02  -5.5652988e+01   1.3965181e+02   2.2705678e+02   1.8517313e+02   3.0247149e+01  -1.8786061e+02  -4.0939831e+02  -5.7745984e+02  -6.4831055e+02  -6.0570987e+02  -4.5709203e+02  -2.4111688e+02  -1.9182619e+01   1.3988977e+02   1.8239498e+02   8.9127368e+01  -1.1397850e+02  -3.6571284e+02  -5.9067480e+02  -7.2290464e+02  -7.2636331e+02  -6.0818168e+02  -4.0469757e+02  -1.7626086e+02   1.2245180e+01   1.0610308e+02   7.2969640e+01  -8.5110683e+01  -3.2722047e+02  -5.8689719e+02  -7.8471545e+02  -8.5875206e+02  -7.8530273e+02  -5.8759110e+02  -3.3181589e+02  -9.8966062e+01   3.8494729e+01   4.5490225e+01  -7.3712087e+01  -2.7819102e+02  -5.0565625e+02  -6.9920926e+02  -8.1201015e+02  -8.2415362e+02  -7.3857976e+02  -5.7686765e+02  -3.8069339e+02  -2.0172946e+02  -9.3952623e+01  -9.9075826e+01  -2.2891201e+02  -4.5717530e+02  -7.2219666e+02  -9.4015444e+02  -1.0415288e+03  -9.9013163e+02  -8.0434492e+02  -5.4574693e+02  -2.9538385e+02  -1.2965688e+02  -9.3359770e+01  -1.9136238e+02  -3.9280473e+02  -6.4291381e+02  -8.7548021e+02  -1.0305236e+03  -1.0674614e+03  -9.7252650e+02  -7.7013233e+02  -5.1779099e+02  -2.8721364e+02  -1.5048244e+02  -1.4902842e+02  -2.8633583e+02  -5.1805312e+02  -7.7317785e+02  -9.7406568e+02  -1.0600405e+03  -1.0069228e+03  -8.3597987e+02  -6.0529200e+02  -3.8959577e+02  -2.5542960e+02  -2.3905551e+02  -3.3969587e+02  -5.2208159e+02  -7.3360639e+02  -9.1930537e+02  -1.0373146e+03  -1.0621669e+03  -9.8761217e+02  -8.3052677e+02  -6.2634506e+02  -4.3348591e+02  -3.1156641e+02  -3.0913184e+02  -4.3790452e+02  -6.6438135e+02  -9.2261480e+02  -1.1350644e+03  -1.2413590e+03  -1.2142554e+03  -1.0671808e+03  -8.4618132e+02  -6.1416297e+02  -4.3612321e+02  -3.5780444e+02  -4.0236734e+02  -5.5722396e+02  -7.7551585e+02  -9.9163894e+02  -1.1385970e+03  -1.1735697e+03  -1.0853124e+03  -9.0179567e+02  -6.7532537e+02  -4.7243354e+02  -3.5421854e+02  -3.5984178e+02  -4.9626358e+02  -7.3220133e+02  -1.0033289e+03  -1.2267653e+03  -1.3317839e+03  -1.2810272e+03  -1.0865201e+03  -8.0714966e+02  -5.2732893e+02  -3.2840814e+02  -2.6521016e+02  -3.5132305e+02  -5.5940919e+02  -8.2618151e+02  -1.0776116e+03  -1.2432618e+03  -1.2781515e+03  -1.1767035e+03  -9.7502933e+02  -7.3361075e+02  -5.2350272e+02  -4.0463592e+02  -4.0392311e+02  -5.1834756e+02  -7.1118551e+02  -9.2557756e+02  -1.1006645e+03  -1.1863130e+03  -1.1557077e+03  -1.0149987e+03  -8.0149676e+02  -5.7694271e+02  -4.0625594e+02  -3.4205896e+02  -4.0263120e+02  -5.7266305e+02  -8.0162921e+02  -1.0215225e+03  -1.1649731e+03  -1.1852152e+03  -1.0704013e+03  -8.4640111e+02  -5.7197349e+02  -3.2127976e+02  -1.6421339e+02  -1.4723572e+02  -2.7297325e+02  -5.0587650e+02  -7.7332920e+02  -9.9557301e+02  -1.1045513e+03  -1.0729327e+03  -9.1639268e+02  -6.8847507e+02  -4.6037185e+02  -2.9787893e+02  -2.3875840e+02  -2.9319665e+02  -4.4385621e+02  -6.5352762e+02  -8.7431315e+02  -1.0585126e+03  -1.1607292e+03  -1.1516510e+03  -1.0275098e+03  -8.1592184e+02  -5.7489674e+02  -3.8036157e+02  -2.9985090e+02  -3.6567720e+02  -5.6301996e+02  -8.3049702e+02  -1.0787437e+03  -1.2252019e+03  -1.2233881e+03  -1.0826349e+03  -8.5647983e+02  -6.2686898e+02  -4.7029430e+02  -4.3202912e+02  -5.1917837e+02  -7.0015625e+02  -9.1976636e+02  -1.1189898e+03  -1.2467790e+03  -1.2734175e+03  -1.1938447e+03  -1.0298064e+03  -8.2334728e+02  -6.3025161e+02  -5.0265735e+02  -4.7846446e+02  -5.6792511e+02  -7.4700866e+02  -9.6929941e+02  -1.1691304e+03  -1.2922698e+03  -1.3014451e+03  -1.1956203e+03  -1.0060398e+03  -7.8802350e+02  -6.0246773e+02  -5.0412580e+02  -5.2438678e+02  -6.6026086e+02  -8.7890338e+02  -1.1159562e+03  -1.2981397e+03  -1.3627163e+03  -1.2801885e+03  -1.0719753e+03  -7.9741634e+02  -5.4254707e+02  -3.8375542e+02  -3.6391576e+02  -4.8145582e+02  -6.9309527e+02  -9.3419497e+02  -1.1395846e+03  -1.2572831e+03  -1.2614034e+03  -1.1520592e+03  -9.5812381e+02  -7.2963021e+02  -5.2660270e+02  -4.0730288e+02  -4.0461793e+02  -5.2140733e+02  -7.2431385e+02  -9.5451047e+02  -1.1449730e+03  -1.2369756e+03  -1.2001515e+03  -1.0397462e+03  -7.9924351e+02  -5.4962622e+02  -3.7125042e+02  -3.2687476e+02  -4.3434619e+02  -6.6380663e+02  -9.3852834e+02  -1.1694077e+03  -1.2866371e+03  -1.2578631e+03  -1.1025743e+03  -8.7142198e+02  -6.3208811e+02  -4.4134231e+02  -3.4118915e+02  -3.4684819e+02  -4.5448905e+02  -6.3639647e+02  -8.4722176e+02  -1.0270562e+03  -1.1230894e+03  -1.1021593e+03  -9.6869320e+02  -7.6503696e+02  -5.5924357e+02  -4.2015863e+02  -3.9429064e+02  -4.9201501e+02  -6.8311269e+02  -9.1293687e+02  -1.1164185e+03  -1.2385582e+03  -1.2407494e+03  -1.1196157e+03  -8.9692361e+02  -6.2100826e+02  -3.5419043e+02  -1.5498542e+02  -5.9837553e+01  -7.2385616e+01  -1.6008493e+02  -2.6501396e+02  -3.2574338e+02  -2.9109908e+02  -1.4410155e+02   9.4531158e+01   3.6948766e+02   6.0767564e+02   7.3703358e+02   7.0889778e+02   5.1032115e+02   1.6820412e+02  -2.5524039e+02  -6.8707730e+02  -1.0550623e+03  -1.3032508e+03  -1.4074124e+03  -1.3716569e+03  -1.2315172e+03  -1.0507921e+03  -9.0083557e+02  -8.4301420e+02  -9.0242107e+02  -1.0578312e+03  -1.2439134e+03  -1.3787403e+03  -1.3925181e+03  -1.2618152e+03  -1.0135777e+03  -7.1160405e+02  -4.3419876e+02  -2.4657875e+02  -1.8241263e+02  -2.4313062e+02  -4.0226207e+02  -6.1344544e+02  -8.2166578e+02  -9.6760260e+02  -1.0114916e+03  -9.3604309e+02  -7.6168016e+02  -5.3816348e+02  -3.3473928e+02  -2.1240198e+02  -2.0498548e+02  -3.0926492e+02  -4.9121865e+02  -6.9265597e+02  -8.5841404e+02  -9.4413536e+02  -9.3189272e+02  -8.2384382e+02  -6.4541050e+02  -4.4351460e+02  -2.7028507e+02  -1.7854450e+02  -2.0073601e+02  -3.3666520e+02  -5.4787578e+02  -7.6339446e+02  -9.1186364e+02  -9.3951592e+02  -8.3448854e+02  -6.3161315e+02  -3.9357495e+02  -1.9041548e+02  -7.6861729e+01  -7.8175591e+01  -1.9177949e+02  -3.8495349e+02  -6.0898424e+02  -8.0612030e+02  -9.2242846e+02  -9.2180610e+02  -8.0122850e+02  -5.9155820e+02  -3.5326640e+02  -1.5633609e+02  -6.2589672e+01  -1.0213748e+02  -2.6644766e+02  -5.0903827e+02  -7.5871439e+02  -9.3850768e+02  -9.9382513e+02  -9.0525435e+02  -7.0102421e+02  -4.4282846e+02  -2.1180569e+02  -7.5032004e+01  -6.8185652e+01  -1.8670299e+02  -3.9086475e+02  -6.1937296e+02  -8.0693783e+02  -9.0307059e+02  -8.7834675e+02  -7.3813507e+02  -5.1796729e+02  -2.7972468e+02  -9.3766460e+01  -1.5170749e+01  -6.2807242e+01  -2.1685233e+02  -4.2691419e+02  -6.2786376e+02  -7.6465809e+02  -8.0470831e+02  -7.4118775e+02  -5.9514241e+02  -4.0092950e+02  -2.0860116e+02  -6.7470601e+01  -1.7492314e+01  -7.6848979e+01  -2.3533750e+02  -4.5130562e+02  -6.6283306e+02  -8.0946195e+02  -8.4475365e+02  -7.5158052e+02  -5.5416773e+02  -3.0587256e+02  -8.1664181e+01   4.6615843e+01   3.4487540e+01  -1.1814930e+02  -3.6254297e+02  -6.1643756e+02  -7.9466802e+02  -8.3961755e+02  -7.4090033e+02  -5.3701325e+02  -2.9531480e+02  -8.5779720e+01   3.6349935e+01   4.4418718e+01  -5.6740003e+01  -2.4158711e+02  -4.6427586e+02  -6.6952196e+02  -8.0135050e+02  -8.1800304e+02  -7.0482295e+02  -4.8797214e+02  -2.3177771e+02  -1.3510923e+01   9.3407902e+01   5.7042248e+01  -1.0840923e+02  -3.4244589e+02  -5.6704759e+02  -7.1398642e+02  -7.4735588e+02  -6.6665278e+02  -5.0203737e+02  -3.0095404e+02  -1.0937988e+02   2.9313790e+01   7.9339463e+01   2.5807924e+01  -1.2548480e+02  -3.3690121e+02  -5.4546086e+02  -6.8550840e+02  -7.0785607e+02  -6.0214565e+02  -4.0713701e+02  -1.8654605e+02  -1.4082263e+01   6.2406426e+01   2.6934930e+01  -1.0339106e+02  -2.8658907e+02  -4.7210140e+02  -6.1090881e+02  -6.6420991e+02  -6.1396842e+02  -4.6582864e+02  -2.5140187e+02  -2.6005743e+01   1.4729607e+02   2.1685598e+02   1.5725213e+02  -1.7255902e+01  -2.5391477e+02  -4.8151223e+02  -6.2789794e+02  -6.4832889e+02  -5.3931807e+02  -3.3454797e+02  -9.8290641e+01   1.0118271e+02   2.1139587e+02   2.0692891e+02   9.4142067e+01  -9.1460328e+01  -2.9904759e+02  -4.7133371e+02  -5.5832967e+02  -5.3125792e+02  -3.9202071e+02  -1.7805803e+02   4.7496444e+01   2.1364429e+02   2.6788628e+02   1.9151682e+02   9.7134425e+00  -2.2404856e+02  -4.3963415e+02  -5.7569705e+02  -5.9430397e+02  -4.9234144e+02  -2.9611442e+02  -5.7389290e+01   1.5980780e+02   2.9493784e+02   3.0851523e+02   1.9540084e+02  -1.4161747e+01  -2.6277673e+02  -4.7642668e+02  -5.9222056e+02  -5.7663204e+02  -4.3251809e+02  -2.0258933e+02   4.6939701e+01   2.4094507e+02   3.2184691e+02   2.6628486e+02   9.0760784e+01  -1.5339011e+02  -3.9324803e+02  -5.5665469e+02  -5.9305702e+02  -4.9139310e+02  -2.7928967e+02  -1.8645867e+01   2.1424960e+02   3.5146894e+02   3.5234561e+02   2.1734363e+02  -1.6247912e+01  -2.8199126e+02  -5.0954018e+02  -6.3944635e+02  -6.3679339e+02  -5.0284047e+02  -2.7217431e+02  -4.9093703e+00   2.2364008e+02   3.4550082e+02   3.2012831e+02   1.5266622e+02  -1.0243781e+02  -3.5819042e+02  -5.2919716e+02  -5.5564369e+02  -4.3260996e+02  -2.0285460e+02   5.9031679e+01   2.7912493e+02   4.0183159e+02   4.0702214e+02   3.0338096e+02   1.2368246e+02  -8.3379353e+01  -2.6615563e+02  -3.7389158e+02  -3.7171403e+02  -2.4984023e+02  -3.3343075e+01   2.1816807e+02   4.3067187e+02   5.3741549e+02   5.0445284e+02   3.3654279e+02   8.5414221e+01  -1.7551577e+02  -3.6911801e+02  -4.3972123e+02  -3.6792071e+02  -1.7902523e+02   6.9143954e+01   3.0130196e+02   4.4823279e+02   4.6614151e+02   3.5150467e+02   1.4198163e+02  -9.9169416e+01  -2.9768488e+02  -3.9509057e+02  -3.6496056e+02  -2.1863647e+02  -5.8671101e-01   2.2441308e+02   3.9114845e+02   4.5070988e+02   3.8639436e+02   2.1215810e+02  -2.5539109e+01  -2.6558645e+02  -4.4405121e+02  -5.0953371e+02  -4.4544529e+02  -2.6607655e+02  -2.5991343e+01   2.0262780e+02   3.4543605e+02   3.5454894e+02   2.2593817e+02  -2.9871353e+00  -2.6235726e+02  -4.7406118e+02  -5.7950545e+02  -5.5418465e+02  -4.1097123e+02  -1.9814329e+02   2.2856700e+01   1.8996227e+02   2.6023714e+02   2.2011582e+02   8.3420803e+01  -1.1016976e+02  -3.0747344e+02  -4.5339697e+02  -5.0838506e+02  -4.5708836e+02  -3.1299844e+02  -1.1441341e+02   8.4811284e+01   2.3260280e+02   2.9050199e+02   2.4253255e+02   9.8381100e+01  -1.0603299e+02  -3.1744716e+02  -4.7700367e+02  -5.3113822e+02  -4.5343089e+02  -2.5527948e+02   9.7966042e+00   2.5640992e+02   4.0111674e+02   3.9104696e+02   2.2853584e+02  -2.8740424e+01  -2.8958149e+02  -4.6660455e+02  -5.0979284e+02  -4.1458401e+02  -2.2312515e+02   3.1191350e+00   2.0413209e+02   3.3349389e+02   3.6436371e+02   2.9279176e+02   1.3150061e+02  -8.4963132e+01  -2.9872584e+02  -4.4824502e+02  -4.7943356e+02  -3.7199888e+02  -1.5270959e+02   1.1078016e+02   3.3189390e+02   4.3997267e+02   4.0424688e+02   2.4102582e+02   7.4443477e+00  -2.2386975e+02  -3.8692487e+02  -4.4104102e+02  -3.7637381e+02  -2.1279334e+02   5.8716389e+00   2.2113252e+02   3.7482724e+02   4.2129195e+02   3.4416322e+02   1.6181290e+02  -7.4867070e+01  -2.9752641e+02  -4.4389761e+02  -4.7215126e+02  -3.7274474e+02  -1.7432901e+02   6.4840212e+01   2.7349873e+02   3.8816812e+02   3.6841105e+02   2.1654572e+02  -2.1998756e+01  -2.7550236e+02  -4.6281777e+02  -5.2510432e+02  -4.3871602e+02  -2.2464060e+02   6.3666948e+01   3.5614081e+02   5.9092916e+02   7.2873637e+02   7.6108222e+02   7.1034960e+02   6.2316056e+02   5.5271068e+02   5.4131094e+02   6.1677314e+02   7.7202950e+02   9.7757020e+02   1.1804389e+03   1.3214657e+03   1.3500320e+03   1.2356398e+03   9.7819439e+02   6.0802036e+02   1.8361012e+02  -2.2192496e+02  -5.3561245e+02  -7.0585881e+02  -7.1446346e+02  -5.8408257e+02  -3.7287611e+02  -1.6291615e+02  -2.6743407e+01  -1.2706759e+01  -1.2033520e+02  -3.0537594e+02  -4.9204156e+02  -6.0234154e+02  -5.8489945e+02  -4.2680547e+02  -1.6278119e+02   1.3826084e+02   3.9810867e+02   5.5199149e+02   5.6445292e+02   4.4218142e+02   2.2966292e+02  -6.5314976e+00  -1.9700761e+02  -2.8835815e+02  -2.5878260e+02  -1.1970274e+02   8.5119279e+01   2.9741284e+02   4.5574972e+02   5.1509494e+02   4.5789142e+02   2.9830703e+02   7.9834092e+01  -1.3448282e+02  -2.8419934e+02  -3.2345246e+02  -2.4026900e+02  -5.6342617e+01   1.7681661e+02   3.9537760e+02   5.3783957e+02   5.6314635e+02   4.6701454e+02   2.7819181e+02   5.5278870e+01  -1.3222850e+02  -2.2976672e+02  -2.0965848e+02  -8.3283554e+01   1.0919011e+02   3.1114715e+02   4.6865288e+02   5.4211795e+02   5.1380475e+02   3.9068552e+02   2.0266749e+02   2.8109284e-01  -1.5731119e+02  -2.1848208e+02  -1.5493025e+02   1.7899756e+01   2.4804766e+02   4.6211016e+02   5.8878704e+02   5.8923558e+02   4.6291360e+02   2.4647891e+02   4.1945456e+00  -1.9466983e+02  -2.9363024e+02  -2.6523850e+02  -1.1779037e+02   1.0732309e+02   3.4443480e+02   5.2845911e+02   6.0761417e+02   5.6329604e+02   4.1050493e+02   1.9267090e+02  -3.1202551e+01  -1.9735457e+02  -2.5659315e+02  -1.8553431e+02   4.3695819e+00   2.5946802e+02   5.0258366e+02   6.5046625e+02   6.5139445e+02   5.0553759e+02   2.5949767e+02  -1.0702347e+01  -2.2786127e+02  -3.4136589e+02  -3.3375311e+02  -2.1397995e+02  -1.2426727e+01   2.2636619e+02   4.4525301e+02   5.8024060e+02   5.8072426e+02   4.3349549e+02   1.7720058e+02  -1.0101437e+02  -3.0309266e+02  -3.5950380e+02  -2.5689549e+02  -4.4714291e+01   1.9883553e+02   3.9703540e+02   5.0097318e+02   4.9834460e+02   4.0128865e+02   2.3053862e+02   1.8975444e+01  -1.9126056e+02  -3.4949787e+02  -4.0238779e+02  -3.2371383e+02  -1.2602546e+02   1.3008581e+02   3.5725092e+02   4.7712620e+02   4.4999800e+02   2.8937970e+02   5.3111539e+01  -1.7848417e+02  -3.3295933e+02  -3.6828824e+02  -2.8394336e+02  -1.0913057e+02   9.9621963e+01   2.8524271e+02   3.9827012e+02   4.1482995e+02   3.3493683e+02   1.8226528e+02  -2.7034729e+00  -1.7417407e+02  -2.8868041e+02  -3.1318863e+02  -2.3441429e+02  -6.3073690e+01   1.6029416e+02   3.7227736e+02   5.0240323e+02   5.0107376e+02   3.5971841e+02   1.1951259e+02  -1.4096700e+02  -3.3586425e+02  -4.0169316e+02  -3.2582363e+02  -1.3931777e+02   9.2862026e+01   3.0117423e+02   4.3248799e+02   4.5723999e+02   3.7220867e+02   1.9991605e+02  -2.0617261e+01  -2.3195281e+02  -3.7678107e+02  -4.0826959e+02  -3.0889639e+02  -1.0333967e+02   1.5112358e+02   3.7621748e+02   5.0145572e+02   4.8938424e+02   3.4828177e+02   1.2350646e+02  -1.1532242e+02  -3.0117427e+02  -3.8431699e+02  -3.4717650e+02  -2.0475095e+02   5.6927379e-01   2.1285493e+02   3.7244178e+02   4.3223805e+02   3.7294247e+02   2.0805423e+02  -1.6776356e+01  -2.3641963e+02  -3.8371060e+02  -4.1303242e+02  -3.1565612e+02  -1.2126250e+02   1.0808349e+02   3.0318014e+02   4.0344995e+02   3.7848946e+02   2.3332298e+02   9.3906222e+00  -2.3172573e+02  -4.1986045e+02  -4.9901905e+02  -4.3960529e+02  -2.5441920e+02   5.8917723e+00   2.6818995e+02   4.5443227e+02   5.1209840e+02   4.2683230e+02   2.3005509e+02  -1.6077824e+01  -2.3891454e+02  -3.7761483e+02  -4.0193488e+02  -3.0804623e+02  -1.2667524e+02   9.7347101e+01   3.0596652e+02   4.4761772e+02   4.7905664e+02   3.8614749e+02   1.9047931e+02  -5.2366095e+01  -2.6807536e+02  -3.8439290e+02  -3.6170564e+02  -2.0961844e+02   2.1963785e+01   2.5369062e+02   4.1512289e+02   4.6027228e+02   3.8266317e+02   2.1055291e+02  -4.4912066e+00  -2.0237628e+02  -3.3163543e+02  -3.5539759e+02  -2.6767948e+02  -9.0148254e+01   1.3073499e+02   3.3520447e+02   4.6782399e+02   4.9657765e+02   4.1617521e+02   2.5329694e+02   5.7416795e+01  -1.1513729e+02  -2.1497832e+02  -2.0857554e+02  -9.0389375e+01   1.1342031e+02   3.5233876e+02   5.5860672e+02   6.6985013e+02   6.5254223e+02   5.0681821e+02   2.7966894e+02   4.5615929e+01  -1.1927139e+02  -1.5951660e+02  -6.0989994e+01   1.4770939e+02   4.0151270e+02   6.2596760e+02   7.5778103e+02   7.6215617e+02   6.3861150e+02   4.2385769e+02   1.7818893e+02  -3.1117002e+01  -1.4458034e+02  -1.2975157e+02   5.0982031e+00   2.1963625e+02   4.4828520e+02   6.2506401e+02   7.0128374e+02   6.5739176e+02   5.0937410e+02   2.9657142e+02   7.3831310e+01  -1.0128047e+02  -1.8076634e+02  -1.3839297e+02   1.5315686e+01   2.3573530e+02   4.5480880e+02   5.9747513e+02   6.1423038e+02   4.9844330e+02   2.8685710e+02   4.3552612e+01  -1.5629854e+02  -2.6018435e+02  -2.4578365e+02  -1.2519982e+02   6.1068248e+01   2.6040942e+02   4.1965837e+02   4.9684203e+02   4.7039374e+02   3.4613793e+02   1.5273226e+02  -5.7691077e+01  -2.2710463e+02  -3.0400256e+02  -2.6102991e+02  -1.0958665e+02   1.0821720e+02   3.2279254e+02   4.6536527e+02   4.8774306e+02   3.8111761e+02   1.7619347e+02  -6.7262664e+01  -2.8129310e+02  -4.0444175e+02  -4.0456273e+02  -2.8058452e+02  -6.6111343e+01   1.8131289e+02   3.9045710e+02   5.0117367e+02   4.7895865e+02   3.3250373e+02   1.0676144e+02  -1.2391589e+02  -2.8912779e+02  -3.4095112e+02  -2.7098282e+02  -1.0554187e+02   1.0176630e+02   2.9183801e+02   4.1421791e+02   4.3705718e+02   3.5439171e+02   1.8489403e+02  -2.7987398e+01  -2.2551338e+02  -3.4827728e+02  -3.5128120e+02  -2.2322872e+02   6.2368587e+00   2.7270678e+02   4.9493442e+02   6.0461151e+02   5.6626258e+02   3.9536294e+02   1.4503850e+02  -1.0527505e+02  -2.8392777e+02  -3.4066159e+02  -2.6504655e+02  -8.2273692e+01   1.5166354e+02   3.6829356e+02   5.0763646e+02   5.2732298e+02   4.2532360e+02   2.3030909e+02   1.3790447e+00  -1.9302584e+02  -2.9765705e+02  -2.8577866e+02  -1.6096756e+02   3.8024631e+01   2.5888770e+02   4.4335073e+02   5.4595388e+02   5.3926645e+02   4.2356426e+02   2.2616358e+02  -3.9441155e-01  -1.9017449e+02  -2.8552741e+02  -2.5791765e+02  -1.1731373e+02   8.9998790e+01   2.9425725e+02   4.3099334e+02   4.6129658e+02   3.7898775e+02   2.1159584e+02   5.6965828e+00  -1.8174659e+02  -2.9779140e+02  -3.0605125e+02  -1.8998440e+02   3.7623410e+01   3.3170320e+02   6.2714406e+02   8.5652634e+02   9.7262967e+02   9.6764313e+02   8.7611875e+02   7.6368085e+02   6.9447160e+02   7.1141760e+02   8.2203374e+02   9.9345534e+02   1.1770066e+03   1.3145613e+03   1.3581138e+03   1.2771824e+03   1.0584231e+03   7.1422266e+02   2.8465165e+02  -1.6375926e+02  -5.4729740e+02  -7.9081538e+02  -8.5351597e+02  -7.4707133e+02  -5.3317391e+02  -2.9667862e+02  -1.2193259e+02  -5.5992347e+01  -1.0488216e+02  -2.3400592e+02  -3.8788320e+02  -5.0638825e+02  -5.3849657e+02  -4.5881733e+02  -2.7112013e+02  -1.1384784e+01   2.5806238e+02   4.6788959e+02   5.6226498e+02   5.1687539e+02   3.4910739e+02   1.1159881e+02  -1.2855101e+02  -3.0291876e+02  -3.6569922e+02  -3.0096580e+02  -1.2740890e+02   1.0652979e+02   3.2813750e+02   4.7104080e+02   4.8626483e+02   3.6851153e+02   1.5439026e+02  -8.7753192e+01  -2.8175075e+02  -3.7236747e+02  -3.3917384e+02  -2.0064666e+02  -1.8625626e+00   1.9983609e+02   3.5191744e+02   4.1723969e+02   3.7745955e+02   2.3980422e+02   3.4243580e+01  -1.8482848e+02  -3.5354529e+02  -4.1665974e+02  -3.4424522e+02  -1.5103449e+02   1.0886274e+02   3.5404445e+02   5.0733492e+02   5.2108296e+02   3.9393949e+02   1.6970208e+02  -8.0308165e+01  -2.8384029e+02  -3.8847159e+02  -3.7380781e+02  -2.5414423e+02  -6.6790491e+01   1.3574367e+02   3.0156799e+02   3.8807382e+02   3.6974319e+02   2.4652622e+02   4.6651523e+01  -1.7920415e+02  -3.6466749e+02  -4.5190725e+02  -4.0878477e+02  -2.4481637e+02  -1.1510399e+01   2.1727938e+02   3.6573870e+02   3.9059815e+02   2.8839487e+02   9.7936973e+01  -1.1774533e+02  -2.9263041e+02  -3.8141584e+02  -3.6499774e+02  -2.5465412e+02  -8.3980165e+01   9.9407425e+01   2.4441616e+02   3.1319236e+02   2.8529432e+02   1.6463983e+02  -1.9074156e+01  -2.1873226e+02  -3.8136175e+02  -4.5751806e+02  -4.1788071e+02  -2.6183333e+02  -2.3413434e+01   2.3390301e+02   4.3346257e+02   5.1216037e+02   4.4320644e+02   2.4723515e+02  -1.2140849e+01  -2.5117253e+02  -3.9361987e+02  -3.9650689e+02  -2.6084072e+02  -2.8188567e+01   2.3305453e+02   4.5088641e+02   5.6641628e+02   5.4636585e+02   3.9957060e+02   1.6701545e+02  -8.5027474e+01  -2.8032395e+02  -3.6215723e+02  -3.0231816e+02  -1.1726268e+02   1.4334916e+02   4.0044175e+02   5.8064792e+02   6.2722972e+02   5.2631694e+02   3.0962929e+02   3.9604767e+01  -2.0607430e+02  -3.5807581e+02  -3.7945761e+02  -2.7192817e+02  -7.0068762e+01   1.6383405e+02   3.6168753e+02   4.6532549e+02   4.4035717e+02   2.9125139e+02   6.5025130e+01  -1.6508108e+02  -3.2265753e+02  -3.5367572e+02  -2.4686829e+02  -3.9480385e+01   2.0056469e+02   4.0197488e+02   5.1001702e+02   5.0357789e+02   3.8983384e+02   2.0056679e+02  -2.1126709e+01  -2.2591263e+02  -3.6371702e+02  -3.9199629e+02  -2.9348769e+02  -8.7035118e+01   1.7203993e+02   4.0552432e+02   5.3905336e+02   5.2928875e+02   3.8156014e+02   1.4717941e+02  -1.0137248e+02  -2.8925205e+02  -3.6789559e+02  -3.1980741e+02  -1.6192294e+02   6.2583810e+01   2.9812004e+02   4.8540436e+02   5.7167869e+02   5.3283487e+02   3.7736307e+02   1.5068943e+02  -8.0454428e+01  -2.4438862e+02  -2.9095786e+02  -2.0976504e+02  -2.5618569e+01   2.0451686e+02   4.1373515e+02   5.4387128e+02   5.5894788e+02   4.5632957e+02   2.6364056e+02   3.4466948e+01  -1.6617586e+02  -2.7953348e+02  -2.7325787e+02  -1.4933102e+02   5.6528334e+01   2.8322468e+02   4.6583339e+02   5.4996479e+02   5.0933811e+02   3.5334575e+02   1.2999902e+02  -9.3278623e+01  -2.4489336e+02  -2.7578374e+02  -1.7516684e+02   2.1362265e+01   2.5227269e+02   4.4392175e+02   5.4417325e+02   5.2912308e+02   4.0879561e+02   2.1971105e+02   1.0160341e+01  -1.6699286e+02  -2.6399830e+02  -2.4968661e+02  -1.1594417e+02   1.0926268e+02   3.6374417e+02   5.7439076e+02   6.7362123e+02   6.2734032e+02   4.5207071e+02   1.9948029e+02  -5.3401978e+01  -2.3429145e+02  -2.9254202e+02  -2.1735786e+02  -3.2496560e+01   2.0560820e+02   4.2731277e+02   5.6333892e+02   5.6979024e+02   4.4639304e+02   2.3070845e+02  -7.0315629e+00  -1.9480719e+02  -2.7851915e+02  -2.3681264e+02  -8.6143695e+01   1.3353665e+02   3.6509551e+02   5.5124765e+02   6.4207396e+02   6.0837126e+02   4.5438398e+02   2.1696633e+02  -3.4712829e+01  -2.2606938e+02  -2.9712961e+02  -2.2916708e+02  -4.6996344e+01   1.9232361e+02   4.1855465e+02   5.7275097e+02   6.1849625e+02   5.4462319e+02   3.7201900e+02   1.3999131e+02  -8.9306321e+01  -2.5059150e+02  -2.8860332e+02  -1.8472070e+02   3.4735758e+01   3.0031479e+02   5.2622610e+02   6.3995958e+02   6.0705025e+02   4.4242533e+02   2.0320850e+02  -3.7088563e+01  -2.0327326e+02  -2.4965601e+02  -1.6415183e+02   2.6784936e+01   2.6582049e+02   4.8135326e+02   6.0584034e+02   6.0523567e+02   4.8319436e+02   2.8250480e+02   6.7041970e+01  -9.9426725e+01  -1.7489090e+02  -1.4250666e+02  -1.3719811e+01   1.7883348e+02   3.8662338e+02   5.5474050e+02   6.3355606e+02   5.9083405e+02   4.2862819e+02   1.8867497e+02  -6.0963614e+01  -2.4243031e+02  -3.0041105e+02  -2.1768254e+02  -1.7658033e+01   2.4167208e+02   4.9093723e+02   6.6160710e+02   7.0866844e+02   6.1734901e+02   4.1220640e+02   1.5169057e+02  -8.5660567e+01  -2.2481021e+02  -2.2391801e+02  -8.5013643e+01   1.4444379e+02   3.9028085e+02   5.7978208e+02   6.6534059e+02   6.3288961e+02   4.9735096e+02   2.9764928e+02   8.3865398e+01  -9.1040433e+01  -1.7463978e+02  -1.3395710e+02   3.3425272e+01   2.8684977e+02   5.5635948e+02   7.5477952e+02   8.1757939e+02   7.2405371e+02   5.1000426e+02   2.4485642e+02   1.5203366e+01  -1.1274710e+02  -1.0616138e+02   2.4202464e+01   2.3679459e+02   4.6943404e+02   6.5717375e+02   7.5198252e+02   7.2954191e+02   5.9829387e+02   3.9712125e+02   1.8004742e+02   4.2338502e+00  -8.2504710e+01  -6.0019048e+01   6.6462266e+01   2.6317202e+02   4.7608186e+02   6.4176901e+02   7.0640286e+02   6.4534661e+02   4.7442932e+02   2.4664669e+02   3.8112940e+01  -8.4378867e+01  -8.2555921e+01   3.8648697e+01   2.4031185e+02   4.6015719e+02   6.3911496e+02   7.3301076e+02   7.1868336e+02   6.0057558e+02   4.0902175e+02   1.9143913e+02   6.5539252e+00  -9.1191015e+01  -7.1374202e+01   6.3076044e+01   2.7308103e+02   4.9820801e+02   6.7135215e+02   7.4289026e+02   6.9175621e+02   5.3436230e+02   3.1594313e+02   1.0396551e+02  -3.8164609e+01  -6.4503418e+01   3.4255793e+01   2.3436459e+02   4.7505942e+02   6.8873098e+02   8.0953558e+02   8.0276464e+02   6.6893560e+02   4.4667680e+02   2.0143558e+02   6.9875889e+00  -7.9187888e+01  -3.2982251e+01   1.2747520e+02   3.5143826e+02   5.6789600e+02   7.1608162e+02   7.5777977e+02   6.8884321e+02   5.3371719e+02   3.3637425e+02   1.5112833e+02   2.5438160e+01  -3.7402582e+00   7.5346703e+01   2.4717374e+02   4.6436898e+02   6.6549776e+02   7.8762028e+02   7.9095486e+02   6.7152801e+02   4.6472693e+02   2.3059683e+02   3.8698074e+01  -5.9505728e+01  -4.2041765e+01   8.3149786e+01   2.7820852e+02   4.8918660e+02   6.5729361e+02   7.3826672e+02   7.0325181e+02   5.5788081e+02   3.3678031e+02   1.0180811e+02  -7.7998810e+01  -1.4624873e+02  -7.8340525e+01   1.0587773e+02   3.4899762e+02   5.7349306e+02   7.1224667e+02   7.2650679e+02   6.2007805e+02   4.2950765e+02   2.1292801e+02   3.0211041e+01  -7.1684781e+01  -6.5481910e+01   4.8388800e+01   2.4011174e+02   4.6277275e+02   6.5533250e+02   7.6207574e+02   7.4789783e+02   6.1199851e+02   3.9404349e+02   1.5890777e+02  -2.2154815e+01  -9.1456201e+01  -3.0439258e+01   1.3907134e+02   3.6416801e+02   5.7488665e+02   7.0860880e+02   7.2721780e+02   6.2674740e+02   4.3514480e+02   2.0763336e+02   9.1727326e+00  -1.0119641e+02  -9.0432764e+01   3.9945503e+01   2.5258874e+02   4.8512109e+02   6.6889418e+02   7.5454900e+02   7.2072305e+02   5.8135748e+02   3.7749247e+02   1.6048372e+02  -1.2652586e+01  -9.8360973e+01  -6.9594201e+01   6.9279452e+01   2.8212732e+02   5.0661917e+02   6.6948412e+02   7.1287377e+02   6.1850703e+02   4.1107580e+02   1.5621393e+02  -6.6642776e+01  -1.9282645e+02  -1.8476293e+02  -4.8029576e+01   1.7877435e+02   4.3331102e+02   6.4696582e+02   7.6043055e+02   7.3873557e+02   5.8408494e+02   3.3422215e+02   6.1086157e+01  -1.5567133e+02  -2.4895695e+02  -1.9171738e+02  -3.4396727e+00   2.5092037e+02   4.9211185e+02   6.4275856e+02   6.5997444e+02   5.4303562e+02   3.2944316e+02   8.5495153e+01  -1.1847500e+02  -2.2562327e+02  -2.0922420e+02  -7.5296514e+01   1.3385071e+02   3.5730660e+02   5.2666924e+02   5.9161628e+02   5.3125978e+02   3.6154258e+02   1.3124038e+02  -9.6853107e+01  -2.6013457e+02  -3.1851574e+02  -2.5826196e+02  -1.0004141e+02   1.1357293e+02   3.2484982e+02   4.7491698e+02   5.2054230e+02   4.4623968e+02   2.7190244e+02   4.7909936e+01  -1.5629875e+02  -2.7871968e+02  -2.8170438e+02  -1.6611950e+02   2.8482508e+01   2.4101751e+02   4.0369418e+02   4.6863527e+02   4.1661283e+02   2.6105338e+02   4.8709428e+01  -1.5961188e+02  -3.0699174e+02  -3.5281115e+02  -2.8600408e+02  -1.2373227e+02   8.9450971e+01   2.9683353e+02   4.4433543e+02   4.8940849e+02   4.1556367e+02   2.3760198e+02   3.1917756e-01  -2.3149418e+02  -3.8841223e+02  -4.2248303e+02  -3.2383791e+02  -1.2143351e+02   1.1858308e+02   3.2238993e+02   4.2810629e+02   4.0383021e+02   2.6116456e+02   4.3472159e+01  -1.8492456e+02  -3.5947332e+02  -4.3291888e+02  -3.8797523e+02  -2.4060849e+02  -3.3826050e+01   1.7609321e+02   3.3322533e+02   3.9408729e+02   3.4265480e+02   1.8825416e+02  -2.8083476e+01  -2.5016420e+02  -4.1085016e+02  -4.6238241e+02  -3.8449499e+02  -1.9680917e+02   4.4185725e+01   2.6223932e+02   3.9086459e+02   3.8761776e+02   2.5612221e+02   3.6926419e+01  -2.0176700e+02  -3.8952906e+02  -4.7224124e+02  -4.3208127e+02  -2.8432421e+02  -7.7695607e+01   1.3096155e+02   2.8613797e+02   3.5288757e+02   3.1826880e+02   1.9481796e+02   1.3470674e+01  -1.7959694e+02  -3.3410758e+02  -4.0226149e+02  -3.5437755e+02  -1.8994059e+02   5.3821868e+01   3.0967758e+02   5.0087919e+02   5.6375738e+02   4.7632154e+02   2.6879953e+02   8.9649647e+00  -2.1693936e+02  -3.3572862e+02  -3.1559054e+02  -1.6945587e+02   4.9002413e+01   2.7016261e+02   4.2962194e+02   4.8647182e+02   4.2809155e+02   2.7116944e+02   5.2200948e+01  -1.7223652e+02  -3.4246042e+02  -4.0341584e+02  -3.3073845e+02  -1.3736155e+02   1.1938027e+02   3.5715758e+02   4.9710452e+02   4.9169749e+02   3.4488021e+02   1.0521631e+02  -1.5526099e+02  -3.6385026e+02  -4.7276785e+02  -4.6184737e+02  -3.4452015e+02  -1.5748085e+02   4.2568242e+01   1.9882780e+02   2.6177314e+02   2.0937272e+02   5.2743968e+01  -1.6767930e+02  -3.8835344e+02  -5.4937367e+02  -6.0832682e+02  -5.5478006e+02  -4.0349268e+02  -2.0112738e+02  -5.2808642e+00   1.2682837e+02   1.5041813e+02   5.2710818e+01  -1.4334506e+02  -3.8270416e+02  -5.9471018e+02  -7.1566717e+02  -7.0682935e+02  -5.7288982e+02  -3.5421859e+02  -1.1506906e+02   7.6123919e+01   1.7023122e+02   1.4506202e+02   1.4619538e+01  -1.8411732e+02  -3.9394909e+02  -5.6005111e+02  -6.3502132e+02  -5.9786564e+02  -4.5487327e+02  -2.4397622e+02  -2.5233536e+01   1.3134765e+02   1.7509297e+02   8.3743570e+01  -1.1616026e+02  -3.6428438e+02  -5.8157174e+02  -7.0471825e+02  -7.0240454e+02  -5.8228542e+02  -3.8783728e+02  -1.7810323e+02  -8.3043694e+00   7.9645426e+01   6.5075136e+01  -5.0677444e+01  -2.4092379e+02  -4.5994245e+02  -6.4339346e+02  -7.3450087e+02  -7.0044971e+02  -5.4383005e+02  -3.1155189e+02  -7.5702838e+01   8.9557034e+01   1.3353335e+02   4.2603816e+01  -1.5175255e+02  -3.9237489e+02  -6.0813384e+02  -7.3538351e+02  -7.3851613e+02  -6.1553510e+02  -4.0358803e+02  -1.6431080e+02   3.2212850e+01   1.3093261e+02   1.0710407e+02  -2.7366386e+01  -2.3492365e+02  -4.6213250e+02  -6.5380055e+02  -7.6220056e+02  -7.5681772e+02  -6.3534303e+02  -4.2317047e+02  -1.7669766e+02   3.0605215e+01   1.3687517e+02   1.1387303e+02  -1.8436606e+01  -1.9778310e+02  -3.3997216e+02  -3.7230246e+02  -2.5739739e+02   7.0898401e-01   3.5643862e+02   7.3881560e+02   1.0712413e+03   1.2850415e+03   1.3361260e+03   1.2209423e+03   9.7613397e+02   6.7130082e+02   3.8612247e+02   1.8102817e+02   8.3015085e+01   7.3012019e+01   9.9707913e+01   9.9730415e+01   2.2349876e+01  -1.5771712e+02  -4.2885834e+02  -7.5637229e+02  -1.0787477e+03  -1.3345983e+03  -1.4679234e+03  -1.4491123e+03  -1.2834690e+03  -1.0089151e+03  -6.9136881e+02  -4.0429381e+02  -2.0817840e+02  -1.3659807e+02  -1.8876719e+02  -3.3131822e+02  -5.1208604e+02  -6.7077750e+02  -7.5441355e+02  -7.3091775e+02  -5.9634138e+02  -3.7963710e+02  -1.3491926e+02   7.0097145e+01   1.7910322e+02   1.5814581e+02   1.4484617e+01  -2.1104345e+02  -4.5051260e+02  -6.3204543e+02  -6.9904967e+02  -6.3126875e+02  -4.4615487e+02  -2.0087967e+02   3.0697960e+01   1.7645620e+02   1.9319226e+02   7.7577462e+01  -1.3200400e+02  -3.6968996e+02  -5.6648535e+02  -6.6769174e+02  -6.4778989e+02  -5.1716966e+02  -3.0946212e+02  -8.1240879e+01   1.0435080e+02   1.9172950e+02   1.4721988e+02  -2.2532833e+01  -2.7265446e+02  -5.3216447e+02  -7.2004237e+02  -7.8372033e+02  -7.0565075e+02  -5.1831534e+02  -2.8380946e+02  -7.2155037e+01   5.7111118e+01   7.2450387e+01  -2.5133850e+01  -2.0557089e+02  -4.1736110e+02  -6.0057836e+02  -7.0330360e+02  -6.9085380e+02  -5.6510138e+02  -3.5847238e+02  -1.3320553e+02   4.1722964e+01   1.0976629e+02   4.5506231e+01  -1.3738068e+02  -3.8762439e+02  -6.3403081e+02  -8.0536210e+02  -8.4995859e+02  -7.5470610e+02  -5.4658825e+02  -2.8678990e+02  -5.2343274e+01   8.6241224e+01   8.9754396e+01  -3.9668084e+01  -2.5943361e+02  -5.0263331e+02  -6.9978820e+02  -7.9635294e+02  -7.7033226e+02  -6.3420300e+02  -4.2856433e+02  -2.0891418e+02  -3.5808831e+01   4.5422527e+01   1.0820609e+01  -1.2958841e+02  -3.4061689e+02  -5.6306433e+02  -7.3337431e+02  -8.0038714e+02  -7.4074921e+02  -5.7008971e+02  -3.3475276e+02  -1.0290121e+02   5.5689155e+01   9.2576389e+01  -4.8656568e+00  -2.0876320e+02  -4.5835065e+02  -6.7638238e+02  -7.9559780e+02  -7.7860205e+02  -6.3227203e+02  -4.0595999e+02  -1.7172134e+02  -3.6818225e+00   5.1354507e+01  -1.7555282e+01  -1.8030161e+02  -3.8495810e+02  -5.7150435e+02  -6.9434981e+02  -7.2829511e+02  -6.7044223e+02  -5.3703083e+02  -3.5880709e+02  -1.7856379e+02  -4.5047427e+01  -7.6747197e-01  -6.7979606e+01  -2.3832307e+02  -4.6479250e+02  -6.7472922e+02  -7.9919175e+02  -7.9308609e+02  -6.6108659e+02  -4.4646750e+02  -2.1889137e+02  -4.7111901e+01   2.2395671e+01  -2.3738631e+01  -1.7008646e+02  -3.7409644e+02  -5.8036985e+02  -7.2998618e+02  -7.7657450e+02  -7.0260895e+02  -5.2378755e+02  -2.9293533e+02  -8.1904413e+01   4.8449050e+01   5.9706366e+01  -4.3588792e+01  -2.2794440e+02  -4.4133178e+02  -6.2784431e+02  -7.4406572e+02  -7.6253808e+02  -6.7627383e+02  -5.0427246e+02  -2.8689998e+02  -8.6926211e+01   3.3859156e+01   3.4830869e+01  -9.2178877e+01  -3.1088062e+02  -5.5723912e+02  -7.5449765e+02  -8.4528687e+02  -8.0127454e+02  -6.3910528e+02  -4.0690340e+02  -1.7763799e+02  -2.0298141e+01   1.7667069e+01  -7.4735643e+01  -2.6651873e+02  -4.9860680e+02  -7.0015712e+02  -8.1087603e+02  -8.0274078e+02  -6.7999708e+02  -4.7724883e+02  -2.5232447e+02  -6.3563343e+01   3.6639902e+01   2.0403565e+01  -1.1175321e+02  -3.2626993e+02  -5.6675140e+02  -7.6677002e+02  -8.6610392e+02  -8.3683863e+02  -6.8496002e+02  -4.5553502e+02  -2.1459358e+02  -3.3520644e+01   3.2643751e+01  -3.4427221e+01  -2.1418714e+02  -4.5047046e+02  -6.7034717e+02  -8.0427038e+02  -8.0996327e+02  -6.8485675e+02  -4.6375680e+02  -2.1225236e+02  -3.3478405e+00   1.0094106e+02   6.8407229e+01  -9.3986339e+01  -3.4191918e+02  -6.0447008e+02  -8.0770810e+02  -8.9402849e+02  -8.4163856e+02  -6.6771252e+02  -4.2914645e+02  -1.9485435e+02  -3.4285221e+01   1.2488920e+01  -6.2359672e+01  -2.3360109e+02  -4.4757523e+02  -6.4662228e+02  -7.7512961e+02  -7.9967415e+02  -7.1200350e+02  -5.3638759e+02  -3.1866468e+02  -1.2129306e+02  -4.0367244e+00  -5.8881933e+00  -1.3018241e+02  -3.4377054e+02  -5.8520503e+02  -7.7998487e+02  -8.6586176e+02  -8.1560900e+02  -6.4167798e+02  -3.9551755e+02  -1.4832568e+02   2.7223627e+01   8.1988726e+01   5.5991993e+00  -1.7820009e+02  -4.1565022e+02  -6.4305149e+02  -7.9873771e+02  -8.4346177e+02  -7.6587321e+02  -5.8847983e+02  -3.6023986e+02  -1.4993390e+02  -2.3843535e+01  -2.4331517e+01  -1.5436452e+02  -3.7500665e+02  -6.1702204e+02  -8.0079682e+02  -8.7067148e+02  -8.0807821e+02  -6.3480690e+02  -4.0300644e+02  -1.7350480e+02  -1.8379572e+00   7.8798291e+01   5.4147383e+01  -6.6194126e+01  -2.5226691e+02  -4.5434533e+02  -6.1370195e+02  -6.7710202e+02  -6.1666590e+02  -4.4036736e+02  -1.9814763e+02   3.7367150e+01   1.9112387e+02   2.1130202e+02   9.1262256e+01  -1.3338683e+02  -3.9491373e+02  -6.1414095e+02  -7.2684819e+02  -7.0028740e+02  -5.4603324e+02  -3.1261215e+02  -7.1313199e+01   1.0657374e+02   1.7494579e+02   1.1894386e+02  -3.6478647e+01  -2.4537148e+02  -4.4887367e+02  -5.9277082e+02  -6.3914017e+02  -5.7467642e+02  -4.1383555e+02  -1.9759604e+02   1.1351384e+01   1.4968984e+02   1.7330159e+02   7.0660800e+01  -1.2951407e+02  -3.7083311e+02  -5.8355334e+02  -7.0991740e+02  -7.1790919e+02  -6.0756944e+02  -4.1716810e+02  -2.0546634e+02  -4.1172924e+01   1.9330457e+01  -4.5583360e+01  -2.2167135e+02  -4.5607502e+02  -6.8400301e+02  -8.4216910e+02  -8.9464985e+02  -8.3470486e+02  -6.8256434e+02  -4.7880492e+02  -2.7395022e+02  -1.2347249e+02  -7.2701663e+01  -1.4788174e+02  -3.3583075e+02  -5.8687612e+02  -8.2075838e+02  -9.6088777e+02  -9.6036689e+02  -8.2384198e+02  -6.0632495e+02  -3.8303698e+02  -2.2221828e+02  -1.6388859e+02  -2.1013842e+02  -3.3850941e+02  -5.1567815e+02  -7.0167267e+02  -8.5508768e+02  -9.3402462e+02  -9.0627065e+02  -7.5960738e+02  -5.2270766e+02  -2.6009310e+02  -5.4213666e+01   2.5876757e+01  -4.8052857e+01  -2.5047582e+02  -5.1251113e+02  -7.4951871e+02  -8.8636996e+02  -8.8881498e+02  -7.5992141e+02  -5.4056904e+02  -2.9386526e+02  -8.4265807e+01   2.9703050e+01   1.7533058e+01  -1.2102825e+02  -3.4697385e+02  -5.9368406e+02  -7.8284210e+02  -8.5242016e+02  -7.7822736e+02  -5.8079837e+02  -3.2091219e+02  -8.2037291e+01   6.6369473e+01   8.1288525e+01  -3.5054817e+01  -2.4771844e+02  -4.9291970e+02  -7.0427524e+02  -8.2799511e+02  -8.3247491e+02  -7.1719215e+02  -5.1574987e+02  -2.7976250e+02  -7.6220122e+01   3.9856559e+01   3.3873192e+01  -9.3528687e+01  -3.0485518e+02  -5.3893035e+02  -7.2761460e+02  -8.1693828e+02  -7.8311058e+02  -6.3906162e+02  -4.2963012e+02  -2.1950992e+02  -7.0745215e+01  -2.8142230e+01  -1.0598684e+02  -2.8591750e+02  -5.1814712e+02  -7.3922717e+02  -8.8606987e+02  -9.1070968e+02  -7.9865094e+02  -5.7250661e+02  -2.8844819e+02  -2.0940496e+01   1.6352728e+02   2.2912988e+02   1.8097495e+02   7.2261657e+01  -2.7434662e+01  -4.7654098e+01   4.7739996e+01   2.5419647e+02   5.2940229e+02   8.0754696e+02   1.0239809e+03   1.1286041e+03   1.0946643e+03   9.2152584e+02   6.3342901e+02   2.7286845e+02  -1.0477392e+02  -4.4017578e+02  -6.8511102e+02  -8.1335311e+02  -8.3000178e+02  -7.7056655e+02  -6.8810884e+02  -6.3604562e+02  -6.5218297e+02  -7.4590070e+02  -8.9733328e+02  -1.0634948e+03  -1.1884108e+03  -1.2242881e+03  -1.1391626e+03  -9.3648278e+02  -6.5342565e+02  -3.5771576e+02  -1.2147223e+02  -7.3408038e+00  -3.8377169e+01  -1.9377436e+02  -4.1596651e+02  -6.2763670e+02  -7.6257819e+02  -7.7895200e+02  -6.7465827e+02  -4.8424252e+02  -2.6149746e+02  -6.8904168e+01   3.9583067e+01   3.1846471e+01  -9.2997876e+01  -3.0111896e+02  -5.3453704e+02  -7.2595834e+02  -8.1899622e+02  -7.8720825e+02  -6.4230424e+02  -4.3115156e+02  -2.1416230e+02  -5.1435036e+01   1.7166818e+01  -2.1489725e+01  -1.5594359e+02  -3.4860974e+02  -5.5128903e+02  -7.0880139e+02  -7.7234012e+02  -7.1922346e+02  -5.5734182e+02  -3.3229470e+02  -1.1319858e+02   2.7438260e+01   4.3236931e+01  -7.3210232e+01  -2.8331907e+02  -5.2261403e+02  -7.1531861e+02  -8.0563681e+02  -7.7014732e+02  -6.2256849e+02  -4.0636117e+02  -1.8057837e+02  -5.1934744e+00   7.3974942e+01   3.9220214e+01  -1.0053977e+02  -3.0857248e+02  -5.2635065e+02  -6.9200251e+02  -7.5584093e+02  -6.9560057e+02  -5.2854792e+02  -3.0227682e+02  -8.7992844e+01   4.8443018e+01   6.8210728e+01  -3.4166986e+01  -2.2519808e+02  -4.4594593e+02  -6.3523752e+02  -7.3885859e+02  -7.2617186e+02  -5.9533853e+02  -3.7546488e+02  -1.2291401e+02   9.1128228e+01   2.0078880e+02   1.6580525e+02  -8.4431040e+00  -2.6820805e+02  -5.3400349e+02  -7.2394028e+02  -7.8446005e+02  -7.0604862e+02  -5.2496441e+02  -2.9961908e+02  -9.6244233e+01   3.4000949e+01   5.8008213e+01  -2.7419737e+01  -2.0225747e+02  -4.2115458e+02  -6.2324616e+02  -7.4728728e+02  -7.5056122e+02  -6.3065891e+02  -4.2529510e+02  -2.0421653e+02  -4.1130458e+01   1.2393851e+01  -5.9490342e+01  -2.3135938e+02  -4.5220206e+02  -6.6356124e+02  -8.1461980e+02  -8.6599205e+02  -8.0177536e+02  -6.3378658e+02  -4.0046065e+02  -1.6788241e+02  -5.9902207e+00   3.1609816e+01  -7.2043321e+01  -2.8738897e+02  -5.4873622e+02  -7.8078337e+02  -9.1777300e+02  -9.2974005e+02  -8.2086357e+02  -6.2693232e+02  -4.0279710e+02  -2.0958265e+02  -1.0152632e+02  -1.0799550e+02  -2.2931144e+02  -4.3074255e+02  -6.5108222e+02  -8.2444804e+02  -8.9713730e+02  -8.4806879e+02  -6.9162175e+02  -4.7317839e+02  -2.5866169e+02  -1.0897230e+02  -7.2708170e+01  -1.6146974e+02  -3.5343665e+02  -5.9421465e+02  -8.1197584e+02  -9.4151002e+02  -9.4567054e+02  -8.2815967e+02  -6.2852651e+02  -4.1208344e+02  -2.4336598e+02  -1.6892050e+02  -2.0597794e+02  -3.4273626e+02  -5.4177185e+02  -7.5216801e+02  -9.2013648e+02  -1.0000298e+03  -9.6724256e+02  -8.2669195e+02  -6.1500930e+02  -3.9455440e+02  -2.3102207e+02  -1.7697455e+02  -2.5065189e+02  -4.3188000e+02  -6.6925726e+02  -8.9282042e+02  -1.0369326e+03  -1.0599130e+03  -9.5429243e+02  -7.4942888e+02  -5.0901106e+02  -3.0491065e+02  -2.0306405e+02  -2.3392612e+02  -3.8429637e+02  -6.0618240e+02  -8.3145788e+02  -9.9723432e+02  -1.0639194e+03  -1.0214440e+03  -8.8524826e+02  -6.9300127e+02  -4.9100069e+02  -3.3389762e+02  -2.6703276e+02  -3.1678321e+02  -4.7886723e+02  -7.0996084e+02  -9.3899479e+02  -1.0919889e+03  -1.1209689e+03  -1.0177797e+03  -8.2038125e+02  -5.9296834e+02  -4.0420911e+02  -3.0317433e+02  -3.0848942e+02  -4.1259292e+02  -5.8492308e+02  -7.8497518e+02  -9.6130995e+02  -1.0655779e+03  -1.0600400e+03  -9.3507992e+02  -7.1652561e+02  -4.6555075e+02  -2.6065970e+02  -1.7097552e+02  -2.2525497e+02  -4.0668779e+02  -6.5299305e+02  -8.8334402e+02  -1.0290944e+03  -1.0518875e+03  -9.5090648e+02  -7.6172047e+02  -5.3690114e+02  -3.3754712e+02  -2.1719391e+02  -2.1163300e+02  -3.2560893e+02  -5.3537086e+02  -7.8220073e+02  -9.9415273e+02  -1.1081515e+03  -1.0899171e+03  -9.4710701e+02  -7.2632301e+02  -4.9656879e+02  -3.2351132e+02  -2.5169356e+02  -2.9414777e+02  -4.3258160e+02  -6.2682183e+02  -8.2222659e+02  -9.6317535e+02  -1.0082734e+03  -9.3998910e+02  -7.7305457e+02  -5.5663814e+02  -3.5926047e+02  -2.4582114e+02  -2.5623184e+02  -3.8768864e+02  -5.9869579e+02  -8.2412921e+02  -9.9872117e+02  -1.0751981e+03  -1.0375346e+03  -8.9862038e+02  -6.8983456e+02  -4.5894107e+02  -2.5952148e+02  -1.4103002e+02  -1.3695278e+02  -2.5436208e+02  -4.6172440e+02  -6.9985076e+02  -8.9323089e+02  -9.7743626e+02  -9.2225974e+02  -7.4078818e+02  -4.8723377e+02  -2.3631922e+02  -6.2459706e+01  -1.5201716e+01  -1.0201384e+02  -2.9168174e+02  -5.2277438e+02  -7.2472817e+02  -8.3488541e+02  -8.2096636e+02  -6.8719529e+02  -4.7342920e+02  -2.4053427e+02  -5.7081538e+01   2.6629792e+01  -1.4274257e+01  -1.6930217e+02  -3.9588320e+02  -6.2993285e+02  -8.0706413e+02  -8.7717614e+02  -8.2204306e+02  -6.5897370e+02  -4.3719737e+02  -2.2360548e+02  -7.9979456e+01  -5.1140580e+01  -1.4818652e+02  -3.4421489e+02  -5.8418399e+02  -7.9862486e+02  -9.2764515e+02  -9.3471474e+02  -8.2136843e+02  -6.2401643e+02  -4.0192238e+02  -2.1825942e+02  -1.2316143e+02  -1.4126752e+02  -2.6824506e+02  -4.7346298e+02  -7.0504404e+02  -9.0180540e+02  -1.0068876e+03  -9.8667094e+02  -8.4094106e+02  -6.1380064e+02  -3.7579291e+02  -2.0625100e+02  -1.6227002e+02  -2.5752127e+02  -4.5943748e+02  -7.0158553e+02  -9.0809463e+02  -1.0216763e+03  -1.0157335e+03  -9.0261054e+02  -7.2202305e+02  -5.2554920e+02  -3.6394202e+02  -2.7709832e+02  -2.8419531e+02  -3.8158570e+02  -5.4379167e+02  -7.2601096e+02  -8.7779288e+02  -9.5475531e+02  -9.2991458e+02  -8.0447417e+02  -6.1239554e+02  -4.0603769e+02  -2.4874251e+02  -1.8870776e+02  -2.4840806e+02  -4.1221539e+02  -6.3220487e+02  -8.4217856e+02  -9.7755645e+02  -9.9766176e+02  -8.9738930e+02  -7.0716160e+02  -4.8388900e+02  -2.9154534e+02  -1.8211005e+02  -1.8639115e+02  -3.0441050e+02  -5.0584411e+02  -7.3409999e+02  -9.2782707e+02  -1.0277875e+03  -1.0026329e+03  -8.5531219e+02  -6.2726261e+02  -3.8549649e+02  -2.0232855e+02  -1.3204106e+02  -1.9379714e+02  -3.6558951e+02  -5.9239139e+02  -8.0371897e+02  -9.3537781e+02  -9.4895356e+02  -8.4297360e+02  -6.4850222e+02  -4.2470645e+02  -2.3483809e+02  -1.3127757e+02  -1.4213769e+02  -2.6318528e+02  -4.5871825e+02  -6.7415123e+02  -8.4824805e+02  -9.2801234e+02  -8.8676445e+02  -7.3303533e+02  -5.0627622e+02  -2.7033187e+02  -9.4298977e+01  -3.1017874e+01  -9.9551983e+01  -2.8056558e+02  -5.2393475e+02  -7.5896415e+02  -9.2109256e+02  -9.6667223e+02  -8.8767821e+02  -7.0996403e+02  -4.8441913e+02  -2.7330864e+02  -1.3033852e+02  -8.5935300e+01  -1.4158465e+02  -2.6702440e+02  -4.1123039e+02  -5.1029400e+02  -5.0729343e+02  -3.6568268e+02  -8.3733648e+01   2.9512992e+02   6.9433616e+02   1.0210279e+03   1.1966068e+03   1.1825795e+03   9.9568994e+02   7.0184038e+02   3.8526811e+02   1.2597460e+02  -3.2216704e+01  -8.9778608e+01  -8.0263601e+01  -5.8943995e+01  -8.0435900e+01  -1.8475509e+02  -3.8628484e+02  -6.6958202e+02  -9.8996718e+02  -1.2850119e+03  -1.4851718e+03  -1.5427470e+03  -1.4426798e+03  -1.2166200e+03  -9.2492869e+02  -6.4220841e+02  -4.2869111e+02  -3.1959388e+02  -3.1384784e+02  -3.9133636e+02  -5.1530950e+02  -6.4669109e+02  -7.4741621e+02  -7.8247835e+02  -7.2544968e+02  -5.7684022e+02  -3.6331653e+02  -1.4274192e+02   1.3628953e+01   4.8350945e+01  -5.6602666e+01  -2.7290283e+02  -5.3287745e+02  -7.5487053e+02  -8.7221535e+02  -8.5233063e+02  -7.0628066e+02  -4.8032095e+02  -2.4084968e+02  -5.4962009e+01   2.3344515e+01  -2.7123030e+01  -1.8938621e+02  -4.1510489e+02  -6.3445271e+02  -7.8132452e+02  -8.1359954e+02  -7.2417169e+02  -5.4297769e+02  -3.2486338e+02  -1.3307454e+02  -2.0584419e+01  -1.6675166e+01  -1.1782492e+02  -2.9612254e+02  -5.0066827e+02  -6.7752338e+02  -7.8158173e+02  -7.8588885e+02  -6.9267287e+02  -5.2546323e+02  -3.2654668e+02  -1.4681065e+02  -3.5942454e+01  -2.9431374e+01  -1.3572139e+02  -3.3150319e+02  -5.6019801e+02  -7.5102431e+02  -8.3642055e+02  -7.8649388e+02  -6.1360351e+02  -3.7375425e+02  -1.4342441e+02   6.0685860e+00   3.3271801e+01  -6.3751689e+01  -2.5019015e+02  -4.6630737e+02  -6.5104955e+02  -7.5190786e+02  -7.4257032e+02  -6.2853981e+02  -4.4193622e+02  -2.3254713e+02  -6.1018132e+01   2.3939069e+01  -4.1320425e+00  -1.3702632e+02  -3.3853500e+02  -5.4839828e+02  -7.0308795e+02  -7.5626334e+02  -6.9254730e+02  -5.3462404e+02  -3.3117429e+02  -1.4510849e+02  -2.6080965e+01  -6.6373619e+00  -8.8165886e+01  -2.5114456e+02  -4.5648531e+02  -6.5185295e+02  -7.8252841e+02  -8.0535914e+02  -7.0189371e+02  -4.9177124e+02  -2.3325678e+02  -7.6665513e+00   1.1451716e+02   9.2374147e+01  -6.3431386e+01  -3.0165040e+02  -5.4388156e+02  -7.1811701e+02  -7.7831148e+02  -7.1359232e+02  -5.4699347e+02  -3.2605596e+02  -1.1357512e+02   3.1657895e+01   6.7822538e+01  -1.7470151e+01  -1.9883836e+02  -4.2088425e+02  -6.1708743e+02  -7.2752164e+02  -7.1996896e+02  -5.9946819e+02  -4.0123479e+02  -1.8167883e+02  -1.1159477e+00   9.4116038e+01   7.5668419e+01  -5.4314437e+01  -2.6666238e+02  -5.0619505e+02  -7.0709936e+02  -8.1164132e+02  -7.8279903e+02  -6.2658638e+02  -3.8424203e+02  -1.2639411e+02   7.2078611e+01   1.5223407e+02   9.1037658e+01  -8.9635057e+01  -3.3411506e+02  -5.6739467e+02  -7.2172431e+02  -7.5395677e+02  -6.5860990e+02  -4.7244202e+02  -2.5108520e+02  -6.1165957e+01   4.8480033e+01   5.0048653e+01  -5.2249306e+01  -2.3407170e+02  -4.4744463e+02  -6.3483954e+02  -7.3788101e+02  -7.1826382e+02  -5.7055379e+02  -3.3489631e+02  -8.3579305e+01   1.0095354e+02   1.6143544e+02   8.5149648e+01  -9.4527210e+01  -3.1472611e+02  -5.0920922e+02  -6.3192811e+02  -6.6164639e+02  -5.9652922e+02  -4.5635120e+02  -2.7169080e+02  -8.8379725e+01   4.0284279e+01   6.9117264e+01  -1.8378840e+01  -1.9921981e+02  -4.1185141e+02  -5.8289032e+02  -6.5183451e+02  -5.9631557e+02  -4.3646893e+02  -2.2528474e+02  -2.8707816e+01   9.9062299e+01   1.2093737e+02   2.9645018e+01  -1.5220615e+02  -3.7917541e+02  -5.8969592e+02  -7.2847165e+02  -7.5623729e+02  -6.7073608e+02  -5.0044249e+02  -2.9923683e+02  -1.2314732e+02  -1.5573046e+01   2.5799257e+00  -7.0029308e+01  -2.1180861e+02  -3.9067290e+02  -5.5955672e+02  -6.7421873e+02  -6.9289542e+02  -6.0027728e+02  -4.1150485e+02  -1.8077451e+02   2.1138564e+01   1.2537108e+02   9.4118066e+01  -6.3662473e+01  -2.9763462e+02  -5.3228183e+02  -6.9508501e+02  -7.3640620e+02  -6.4388939e+02  -4.4678027e+02  -2.0019974e+02   2.3680231e+01   1.6226188e+02   1.7554739e+02   6.1626815e+01  -1.4641738e+02  -3.8445828e+02  -5.8353929e+02  -6.8766333e+02  -6.6971664e+02  -5.3691517e+02  -3.2832560e+02  -1.0488599e+02   7.1898825e+01   1.4658059e+02   9.4322873e+01  -7.1821393e+01  -3.0472197e+02  -5.3296431e+02  -6.8491589e+02  -7.1683351e+02  -6.2377040e+02  -4.4055096e+02  -2.2367036e+02  -3.4895354e+01   8.0254310e+01   9.5773013e+01   6.1796598e+00  -1.6891779e+02  -3.8915377e+02  -5.9421266e+02  -7.1952560e+02  -7.1843178e+02  -5.8211449e+02  -3.5171688e+02  -1.0088923e+02   8.9205644e+01   1.6150458e+02   1.0387871e+02  -5.4112262e+01  -2.6250895e+02  -4.6433827e+02  -6.1051531e+02  -6.6408073e+02  -6.1049532e+02  -4.5514277e+02  -2.3673679e+02  -1.6250166e+01   1.3356210e+02   1.6370012e+02   6.4443494e+01  -1.2946736e+02  -3.5361760e+02  -5.3741077e+02  -6.3077705e+02  -6.1567736e+02  -4.9762574e+02  -3.0647832e+02  -8.5557777e+01   1.1201637e+02   2.3395453e+02   2.4097783e+02   1.2715165e+02  -7.5754046e+01  -3.0211032e+02  -4.7604445e+02  -5.3771476e+02  -4.6594321e+02  -2.8224872e+02  -4.4816620e+01   1.7814357e+02   3.2170235e+02   3.4987476e+02   2.5752566e+02   7.1063448e+01  -1.5686358e+02  -3.6555898e+02  -4.9996392e+02  -5.2643041e+02  -4.3772872e+02  -2.6239398e+02  -5.0312918e+01   1.3472263e+02   2.3573513e+02   2.1813654e+02   8.2654986e+01  -1.3167476e+02  -3.5986695e+02  -5.3139044e+02  -5.9357787e+02  -5.3070479e+02  -3.6466245e+02  -1.4858667e+02   5.1283254e+01   1.7870008e+02   1.9520761e+02   9.6480164e+01  -9.7377192e+01  -3.3652521e+02  -5.5714323e+02  -6.9696049e+02  -7.1419200e+02  -5.9996575e+02  -3.8821354e+02  -1.4276019e+02   5.9812595e+01   1.5785756e+02   1.2549513e+02  -2.2998303e+01  -2.3867951e+02  -4.5487785e+02  -6.1042195e+02  -6.6816983e+02  -6.1948185e+02  -4.8345029e+02  -2.9708642e+02  -1.0757264e+02   4.0727015e+01   1.1028906e+02   7.9270024e+01  -4.7548617e+01  -2.3984471e+02  -4.4109727e+02  -5.8602433e+02  -6.2277050e+02  -5.3486333e+02  -3.4776593e+02  -1.2358078e+02   6.3685273e+01   1.5672782e+02   1.2802515e+02  -1.0273688e+01  -2.1523336e+02  -4.2853566e+02  -5.9338837e+02  -6.6603880e+02  -6.2752449e+02  -4.8838200e+02  -2.8536360e+02  -7.7106480e+01   7.4679729e+01   1.2335178e+02   5.2546582e+01  -1.1635672e+02  -3.3582016e+02  -5.4416132e+02  -6.8494409e+02  -7.2042493e+02  -6.4100817e+02  -4.6539922e+02  -2.3883850e+02  -2.3670072e+01   1.1628324e+02   1.3714417e+02   2.8451510e+01  -1.7605986e+02  -4.0929719e+02  -5.9540744e+02  -6.7531844e+02  -6.2484631e+02  -4.6399049e+02  -2.4430292e+02  -3.2097684e+01   1.1407775e+02   1.5862406e+02   9.2449381e+01  -6.2028527e+01  -2.6289268e+02  -4.5630166e+02  -5.8969794e+02  -6.2337418e+02  -5.4330545e+02  -3.6781515e+02  -1.4329642e+02   6.3908970e+01   1.8910035e+02   1.8989677e+02   6.2177587e+01  -1.5759209e+02  -4.0574503e+02  -6.0778798e+02  -7.0703096e+02  -6.7407897e+02  -5.2270661e+02  -2.9284161e+02  -4.5249749e+01   1.6279653e+02   2.8484167e+02   3.0025548e+02   2.2387216e+02   9.9632395e+01  -6.5006300e+00  -2.5552357e+01   9.0750448e+01   3.4670285e+02   7.0134110e+02   1.0731087e+03   1.3715364e+03   1.5236775e+03   1.4999526e+03   1.3155162e+03   1.0221340e+03   6.8631308e+02   3.7124736e+02   1.1922827e+02  -5.1095442e+01  -1.4704736e+02  -1.9142595e+02  -2.1660911e+02  -2.5741066e+02  -3.4364864e+02  -4.8575792e+02  -6.7661003e+02  -8.8532590e+02  -1.0609754e+03  -1.1524860e+03  -1.1225751e+03  -9.6451885e+02  -7.0606380e+02  -4.0635886e+02  -1.3667178e+02   4.3965264e+01   1.0186001e+02   3.8559296e+01  -1.1061180e+02  -2.9281092e+02  -4.4833895e+02  -5.3115488e+02  -5.1287343e+02  -3.9460470e+02  -2.0507062e+02   4.7472248e+00   1.7642845e+02   2.5752697e+02   2.1923690e+02   6.7056369e+01  -1.5648800e+02  -3.8611326e+02  -5.5449915e+02  -6.1232445e+02  -5.4539782e+02  -3.7407917e+02  -1.4970857e+02   6.4347309e+01   2.0799463e+02   2.3976317e+02   1.4718931e+02  -4.8059733e+01  -2.9393055e+02  -5.2135057e+02  -6.6276527e+02  -6.7447844e+02  -5.5406705e+02  -3.3815063e+02  -9.7590745e+01   9.0032366e+01   1.6687231e+02   1.1184802e+02  -5.5101439e+01  -2.7963872e+02  -4.9576255e+02  -6.4024826e+02  -6.7373465e+02  -5.8720951e+02  -4.0798085e+02  -1.8868851e+02   8.2010031e+00   1.2650429e+02   1.2978712e+02   2.0123002e+01  -1.7426772e+02  -3.9726838e+02  -5.8991247e+02  -7.0187260e+02  -7.0504075e+02  -5.9840011e+02  -4.1033010e+02  -1.8925537e+02   4.6550889e+00   1.1602167e+02   1.1065825e+02  -1.7608316e+01  -2.3496113e+02  -4.8186656e+02  -6.8532771e+02  -7.8411873e+02  -7.4971926e+02  -5.9391697e+02  -3.6646212e+02  -1.4004137e+02   1.9647293e+01   6.5518275e+01  -1.0689446e+01  -1.8415216e+02  -4.0759657e+02  -6.1590437e+02  -7.5345037e+02  -7.7885392e+02  -6.8128454e+02  -4.8532893e+02  -2.4716341e+02  -3.9585379e+01   7.3471682e+01   5.2583653e+01  -9.4892822e+01  -3.2232403e+02  -5.5964720e+02  -7.3842662e+02  -8.1018281e+02  -7.5869062e+02  -6.0310900e+02  -3.8716927e+02  -1.6752680e+02  -4.9385907e+00   5.4575141e+01  -1.2576433e+01  -1.9167678e+02  -4.3375459e+02  -6.6680643e+02  -8.2006415e+02  -8.4901295e+02  -7.4523048e+02  -5.4391139e+02  -3.0464150e+02  -9.6812799e+01   1.9797710e+01   1.5941582e+01  -1.0931094e+02  -3.2045319e+02  -5.5684190e+02  -7.4742813e+02  -8.3506801e+02  -7.9410301e+02  -6.3797905e+02  -4.1898087e+02  -2.0402173e+02  -5.8021819e+01  -1.9977524e+01  -9.5915168e+01  -2.6251007e+02  -4.6964255e+02  -6.6328654e+02  -7.9071245e+02  -8.1673806e+02  -7.3603628e+02  -5.6722951e+02  -3.5616808e+02  -1.6163143e+02  -3.8883048e+01  -2.5418946e+01  -1.2561183e+02  -3.1595358e+02  -5.3981752e+02  -7.2890522e+02  -8.2460730e+02  -7.9295600e+02  -6.4383811e+02  -4.2438122e+02  -2.0327628e+02  -5.0426517e+01  -7.9570508e+00  -8.1804134e+01  -2.4577510e+02  -4.4951334e+02  -6.3793175e+02  -7.6422136e+02  -7.9421517e+02  -7.2107261e+02  -5.5889332e+02  -3.4749780e+02  -1.4445993e+02  -1.0722815e+01   6.8803305e+00  -1.0157166e+02  -3.0780224e+02  -5.4965234e+02  -7.5130166e+02  -8.4970225e+02  -8.1689074e+02  -6.6475030e+02  -4.4698050e+02  -2.2786788e+02  -7.2113764e+01  -1.6693763e+01  -6.9001650e+01  -2.0928600e+02  -3.9598396e+02  -5.8368856e+02  -7.2398503e+02  -7.8198309e+02  -7.3546207e+02  -5.9311001e+02  -3.9191992e+02  -1.9166113e+02  -5.9640668e+01  -4.2045534e+01  -1.4869849e+02  -3.4320115e+02  -5.5871671e+02  -7.2485055e+02  -7.9402780e+02  -7.5304239e+02  -6.2426951e+02  -4.4715770e+02  -2.6443197e+02  -1.1713019e+02  -3.7381080e+01  -4.6198201e+01  -1.5040158e+02  -3.3142639e+02  -5.4291576e+02  -7.1845279e+02  -8.0029965e+02  -7.5601126e+02  -6.0027690e+02  -3.8788379e+02  -1.8855730e+02  -6.4784002e+01  -4.7884184e+01  -1.3723584e+02  -3.0276699e+02  -4.9814618e+02  -6.7229051e+02  -7.7569083e+02  -7.7423890e+02  -6.5696710e+02  -4.4916716e+02  -2.0714399e+02  -4.5765354e+00   9.2689074e+01   5.2133086e+01  -1.1386272e+02  -3.5426911e+02  -5.9655445e+02  -7.7120579e+02  -8.2855119e+02  -7.5572019e+02  -5.7598544e+02  -3.4322414e+02  -1.2609903e+02   1.2043681e+01   3.3321190e+01  -6.5455974e+01  -2.5071959e+02  -4.6384027e+02  -6.4435450e+02  -7.4131274e+02  -7.2843769e+02  -6.0741798e+02  -4.0865252e+02  -1.8352703e+02   2.9535760e+00   9.3431043e+01   5.7064275e+01  -1.0230233e+02  -3.3774522e+02  -5.7788175e+02  -7.4813012e+02  -7.9760157e+02  -7.1243476e+02  -5.1870480e+02  -2.7448225e+02  -5.1473515e+01   8.8884920e+01   1.1068695e+02   1.4166651e+01  -1.6771195e+02  -3.8044070e+02  -5.6585243e+02  -6.7539685e+02  -6.8151545e+02  -5.8537280e+02  -4.1112399e+02  -2.0163856e+02  -1.2363720e+01   9.9003743e+01   9.4733843e+01  -3.3234059e+01  -2.5032813e+02  -4.8952672e+02  -6.7044522e+02  -7.2837834e+02  -6.4307464e+02  -4.4025835e+02  -1.8530674e+02   4.4657262e+01   1.8651090e+02   2.0856952e+02   1.1466254e+02  -5.8650626e+01  -2.5865329e+02  -4.3092323e+02  -5.2947030e+02  -5.2929839e+02  -4.3058751e+02  -2.5954098e+02  -6.2649526e+01   1.0809844e+02   2.0448453e+02   1.9951185e+02   9.5559265e+01  -7.7128439e+01  -2.6318254e+02  -4.0497806e+02  -4.5474495e+02  -3.9068004e+02  -2.2697359e+02  -1.0005229e+01   1.9719039e+02   3.3356025e+02   3.5866799e+02   2.6222466e+02   6.9892244e+01  -1.6573601e+02  -3.8122936e+02  -5.1540206e+02  -5.3014618e+02  -4.2114143e+02  -2.2334460e+02   2.1657590e+00   1.8461916e+02   2.6578032e+02   2.2268794e+02   6.8341941e+01  -1.5217742e+02  -3.7490163e+02  -5.4052005e+02  -6.0948088e+02  -5.6639691e+02  -4.2957664e+02  -2.4078347e+02  -5.5158316e+01   7.3197707e+01   1.0593497e+02   3.3328950e+01  -1.2541677e+02  -3.2568861e+02  -5.1420858e+02  -6.4203080e+02  -6.7458027e+02  -6.0280300e+02  -4.4420035e+02  -2.3616017e+02  -3.4806139e+01   1.0124869e+02   1.2796259e+02   3.2093914e+01  -1.6006856e+02  -3.8838901e+02  -5.8017050e+02  -6.7532240e+02  -6.4614515e+02  -5.1045176e+02  -3.1796738e+02  -1.2976707e+02  -2.1087662e+00   3.5358493e+01  -2.6149254e+01  -1.6867386e+02  -3.5743143e+02  -5.4509668e+02  -6.7960355e+02  -7.1630055e+02  -6.3548590e+02  -4.4997440e+02  -2.1294807e+02   2.8432846e+00   1.2824658e+02   1.2497441e+02  -3.7349544e+00  -2.1386645e+02  -4.3786216e+02  -6.1066951e+02  -6.8795972e+02  -6.5224450e+02  -5.1851734e+02  -3.2520998e+02  -1.2705920e+02   2.4890618e+01   8.7226368e+01   4.5854609e+01  -8.7520492e+01  -2.7370904e+02  -4.5988112e+02  -5.9221854e+02  -6.3425532e+02  -5.7188153e+02  -4.2353497e+02  -2.3165960e+02  -5.4331839e+01   5.4774492e+01   5.7853022e+01  -4.7915788e+01  -2.3152666e+02  -4.3583761e+02  -6.0026690e+02  -6.7594950e+02  -6.4208952e+02  -5.0705655e+02  -3.0787549e+02  -9.4542227e+01   7.6743796e+01   1.6257672e+02   1.3535957e+02   2.7919202e-01  -2.0649106e+02  -4.2326273e+02  -5.8236882e+02  -6.3069020e+02  -5.5310079e+02  -3.7423175e+02  -1.5646996e+02   2.7067137e+01   1.1751557e+02   8.9998920e+01  -4.4731811e+01  -2.4482898e+02  -4.5246834e+02  -6.1219880e+02  -6.8006857e+02  -6.3027236e+02  -4.6578458e+02  -2.1347818e+02   7.3012411e+01   3.3074280e+02   5.0445239e+02   5.6988168e+02   5.4325948e+02   4.7507666e+02   4.2607822e+02   4.4795192e+02   5.5472899e+02   7.2899841e+02   9.3064135e+02   1.1133270e+03   1.2411806e+03   1.2836697e+03   1.2195325e+03   1.0328454e+03   7.2302860e+02   3.1920728e+02  -1.2085854e+02  -5.1591384e+02  -7.8616750e+02  -8.8845357e+02  -8.3494680e+02  -6.8352095e+02  -5.2354781e+02  -4.2883208e+02  -4.3991606e+02  -5.4700757e+02  -7.0357522e+02  -8.4685215e+02  -9.2090850e+02  -8.8834038e+02  -7.4444638e+02  -5.1007143e+02  -2.3171519e+02   3.0676080e+01   2.1340373e+02   2.7106593e+02   1.9301734e+02   3.9137987e+00  -2.3539897e+02  -4.5059629e+02  -5.7692478e+02  -5.7636304e+02  -4.4921026e+02  -2.3332237e+02   8.0761006e+00   2.0234684e+02   2.8954234e+02   2.4042014e+02   6.9021758e+01  -1.7537607e+02  -4.1334228e+02  -5.7019521e+02  -5.9883407e+02  -4.9633751e+02  -3.0139537e+02  -8.0007121e+01   1.0330068e+02   2.0302939e+02   2.0294747e+02   1.1301910e+02  -4.0430745e+01  -2.1822721e+02  -3.7864010e+02  -4.7831428e+02  -4.8263549e+02  -3.8278567e+02  -2.0057147e+02   1.0214567e+01   1.8039670e+02   2.5545932e+02   2.1279964e+02   7.0766359e+01  -1.2484924e+02  -3.1643700e+02  -4.5523216e+02  -5.1119532e+02  -4.7092968e+02  -3.4060423e+02  -1.4816551e+02   6.1067087e+01   2.2883302e+02   3.0134416e+02   2.4864109e+02   8.5317662e+01  -1.3746112e+02  -3.4691198e+02  -4.7651455e+02  -4.9064224e+02  -3.9012918e+02  -2.0871779e+02  -1.9744109e+00   1.7197831e+02   2.6348389e+02   2.4690494e+02   1.2219986e+02  -7.2959424e+01  -2.8026967e+02  -4.3615193e+02  -4.9263654e+02  -4.3459025e+02  -2.8515919e+02  -9.2557658e+01   8.7868197e+01   2.1084369e+02   2.4665026e+02   1.8882328e+02   4.9380885e+01  -1.4464570e+02  -3.4579957e+02  -4.9997157e+02  -5.5821404e+02  -4.9072643e+02  -3.0783199e+02  -6.3372100e+01   1.6627991e+02   3.0724753e+02   3.1300425e+02   1.8646415e+02  -2.3317920e+01  -2.4674488e+02  -4.1679004e+02  -4.8995512e+02  -4.5587215e+02  -3.3332303e+02  -1.5964847e+02   2.1696177e+01   1.6311645e+02   2.2846253e+02   1.9312321e+02   5.9835710e+01  -1.3818142e+02  -3.4135911e+02  -4.8436417e+02  -5.1404076e+02  -4.1579415e+02  -2.2011399e+02   1.1497403e+01   2.0714514e+02   3.1047531e+02   2.9872622e+02   1.8324518e+02   7.1140878e-01  -1.9600321e+02  -3.5869190e+02  -4.4479939e+02  -4.2933071e+02  -3.1336683e+02  -1.2501200e+02   8.5631496e+01   2.5526825e+02   3.3012910e+02   2.8747611e+02   1.3998643e+02  -6.7538335e+01  -2.6788892e+02  -4.0090324e+02  -4.2660065e+02  -3.3603244e+02  -1.5441884e+02   6.5331576e+01   2.5783633e+02   3.6706329e+02   3.5659531e+02   2.2862003e+02   1.9748247e+01  -2.1057552e+02  -3.9557993e+02  -4.8409526e+02  -4.5470531e+02  -3.1872827e+02  -1.1771078e+02   9.0132571e+01   2.4447730e+02   3.0164960e+02   2.4744457e+02   9.8998313e+01  -9.6988872e+01  -2.8158715e+02  -3.9995993e+02  -4.1966082e+02  -3.4089859e+02  -1.8822094e+02  -6.5536959e+00   1.5167634e+02   2.4431494e+02   2.4300354e+02   1.4467002e+02  -2.7046763e+01  -2.2684484e+02  -4.0094235e+02  -5.0099290e+02  -4.9754094e+02  -3.9353956e+02  -2.1746561e+02  -1.7292961e+01   1.5376583e+02   2.4703364e+02   2.3250431e+02   1.0824073e+02  -9.4820545e+01  -3.1873257e+02  -4.9263154e+02  -5.5710591e+02  -4.8980596e+02  -3.1163699e+02  -8.1317272e+01   1.2712593e+02   2.5301355e+02   2.6871203e+02   1.7953511e+02   1.6692373e+01  -1.7428062e+02  -3.4641981e+02  -4.5524536e+02  -4.6950502e+02  -3.7519212e+02  -1.9123094e+02   3.6075736e+01   2.3806699e+02   3.5057060e+02   3.3440807e+02   1.9735967e+02  -1.4423059e+01  -2.3080125e+02  -3.8652551e+02  -4.3871153e+02  -3.7784924e+02  -2.2757629e+02  -3.3834862e+01   1.4718138e+02   2.6250401e+02   2.8022219e+02   1.9278926e+02   2.8524539e+01  -1.6341721e+02  -3.2257292e+02  -4.0298621e+02  -3.8214759e+02  -2.7043995e+02  -1.0434984e+02   7.0620022e+01   2.0570760e+02   2.6475682e+02   2.3001877e+02   1.0360334e+02  -8.5575552e+01  -2.9176637e+02  -4.5608196e+02  -5.2610221e+02  -4.7228204e+02  -3.0028571e+02  -5.7707630e+01   1.8857656e+02   3.6376063e+02   4.1713320e+02   3.3284665e+02   1.4102392e+02  -9.8691967e+01  -3.1027091e+02  -4.3001130e+02  -4.2470122e+02  -3.0254055e+02  -1.0494855e+02   1.0397565e+02   2.6186312e+02   3.2688741e+02   2.8381421e+02   1.4992476e+02  -3.9486571e+01  -2.3660747e+02  -3.8855704e+02  -4.5302473e+02  -4.0598830e+02  -2.5053569e+02  -2.5101996e+01   2.0579116e+02   3.7174540e+02   4.1766262e+02   3.2891681e+02   1.3499782e+02  -9.9426245e+01  -3.0030689e+02  -4.0787696e+02  -3.9606220e+02  -2.7689272e+02  -9.1903234e+01   1.0387765e+02   2.5502362e+02   3.2451549e+02   2.9909525e+02   1.8872200e+02   2.2683525e+01  -1.5137478e+02  -2.8860962e+02  -3.4764097e+02  -3.0859437e+02  -1.7545271e+02   1.7123305e+01   2.1658486e+02   3.6147714e+02   4.0469134e+02   3.2898504e+02   1.5614018e+02  -6.0449281e+01  -2.5219487e+02  -3.6085140e+02  -3.5309577e+02  -2.3534460e+02  -4.4676525e+01   1.6469893e+02   3.3724619e+02   4.3089668e+02   4.2367917e+02   3.2266386e+02   1.5563288e+02  -3.1424054e+01  -1.8523386e+02  -2.5797135e+02  -2.2266298e+02  -8.4094641e+01   1.2077297e+02   3.3212646e+02   4.8607465e+02   5.3401278e+02   4.6354393e+02   2.9721445e+02   8.9694500e+01  -9.5196488e+01  -1.9985558e+02  -1.9461782e+02  -8.4984888e+01   9.4894938e+01   2.9121540e+02   4.4794500e+02   5.2352170e+02   5.0168117e+02   3.9283077e+02   2.2625062e+02   4.4060779e+01  -1.1243181e+02  -2.0347413e+02  -2.0155887e+02  -9.7812355e+01   8.7060762e+01   3.0068123e+02   4.7359030e+02   5.3773150e+02   4.6075887e+02   2.5932056e+02  -3.2084139e+00  -2.4130425e+02  -3.8053735e+02  -3.8648455e+02  -2.7041294e+02  -7.6354257e+01   1.3731562e+02   3.1292653e+02   4.0711813e+02   3.9689450e+02   2.8247647e+02   8.8097404e+01  -1.3648607e+02  -3.2930591e+02  -4.3487721e+02  -4.2514504e+02  -3.0534969e+02  -1.1452900e+02   9.3910249e+01   2.6253117e+02   3.4738241e+02   3.2361521e+02   1.9725553e+02  -1.5431824e+00  -2.1668342e+02  -3.8221667e+02  -4.4139731e+02  -3.7075968e+02  -1.9272197e+02   3.4325639e+01   2.3573558e+02   3.4514815e+02   3.3278753e+02   2.0779125e+02   1.3585696e+01  -1.9208612e+02  -3.5317069e+02  -4.2899442e+02  -4.0551275e+02  -2.8970180e+02  -1.1466504e+02   7.5281807e+01   2.2566981e+02   2.9342325e+02   2.5180610e+02   1.0872668e+02  -1.0042677e+02  -3.1450116e+02  -4.7044813e+02  -5.1845767e+02  -4.4338877e+02  -2.6689258e+02  -4.1031230e+01   1.6805100e+02   3.0154378e+02   3.2442943e+02   2.3221581e+02   5.1833836e+01  -1.6485191e+02  -3.5575160e+02  -4.6321946e+02  -4.5556860e+02  -3.3393987e+02  -1.3695880e+02   7.2717919e+01   2.3222677e+02   2.9510880e+02   2.5060871e+02   1.1652278e+02  -6.7383054e+01  -2.5263215e+02  -3.9470727e+02  -4.6029958e+02  -4.2713868e+02  -3.0068834e+02  -1.0834992e+02   9.3432194e+01   2.3942377e+02   2.7820934e+02   1.9134162e+02   3.7995163e+00  -2.2295799e+02  -4.1832917e+02  -5.2514256e+02  -5.1637243e+02  -3.9944133e+02  -2.0941229e+02  -1.2607531e-02   1.7391247e+02   2.6301397e+02   2.3602007e+02   9.4060478e+01  -1.2538757e+02  -3.6333749e+02  -5.4877711e+02  -6.2802597e+02  -5.8194059e+02  -4.3114635e+02  -2.2678366e+02  -2.8003746e+01   1.1216192e+02   1.6659636e+02   1.3769260e+02   4.8394412e+01  -5.8193676e+01  -1.3777133e+02  -1.4433215e+02  -4.6108968e+01   1.6964598e+02   4.8687833e+02   8.5717073e+02   1.2039555e+03   1.4460898e+03   1.5226983e+03   1.4179795e+03   1.1747135e+03   8.7390091e+02   6.0653623e+02   4.3021653e+02   3.5562583e+02   3.4581205e+02   3.4091676e+02   2.8727898e+02   1.5640854e+02  -5.3085952e+01  -3.2451643e+02  -6.2955105e+02  -9.2809781e+02  -1.1729317e+03  -1.3101191e+03  -1.2991940e+03  -1.1284035e+03  -8.3505867e+02  -4.9260243e+02  -1.9169684e+02  -4.6507414e+00   3.8720832e+01  -4.2578623e+01  -1.9562661e+02  -3.5744030e+02  -4.7093338e+02  -5.0134474e+02  -4.4208686e+02  -3.0700096e+02  -1.2920744e+02   4.3534102e+01   1.6858061e+02   2.1041914e+02   1.5600692e+02   1.7859846e+01  -1.6729637e+02  -3.5076443e+02  -4.8016784e+02  -5.1578805e+02  -4.4121284e+02  -2.7121010e+02  -5.3283046e+01   1.5193851e+02   2.8024029e+02   2.9122025e+02   1.8008148e+02  -1.9723394e+01  -2.4689181e+02  -4.3399140e+02  -5.2694717e+02  -4.9923234e+02  -3.6365518e+02  -1.6077972e+02   4.9267800e+01   2.0636112e+02   2.6550436e+02   2.1156797e+02   6.3942111e+01  -1.3423752e+02  -3.2390417e+02  -4.5119843e+02  -4.7996179e+02  -4.0180460e+02  -2.3654082e+02  -2.8284587e+01   1.6579031e+02   2.8690016e+02   2.9925301e+02   1.9627970e+02   1.0818204e+01  -1.9780402e+02  -3.6420731e+02  -4.3744550e+02  -3.9647477e+02  -2.6041473e+02  -7.2497410e+01   1.1470176e+02   2.5063279e+02   2.9999994e+02   2.5186208e+02   1.1481237e+02  -7.5260182e+01  -2.6959763e+02  -4.1358728e+02  -4.6143494e+02  -3.9666919e+02  -2.3714727e+02  -2.9695829e+01   1.6476693e+02   2.8660382e+02   3.0129133e+02   2.0512499e+02   2.7987332e+01  -1.7704137e+02  -3.4779566e+02  -4.3147902e+02  -4.0039988e+02  -2.6271824e+02  -6.0957540e+01   1.4328718e+02   2.8546234e+02   3.2532089e+02   2.5033565e+02   8.2373914e+01  -1.3201251e+02  -3.3560825e+02  -4.6938513e+02  -4.9330279e+02  -3.9619286e+02  -2.0128506e+02   3.4645585e+01   2.4181551e+02   3.5473244e+02   3.4224901e+02   2.1472199e+02   1.7337387e+01  -1.8677910e+02  -3.4237838e+02  -4.1153724e+02  -3.8368629e+02  -2.6786469e+02  -9.1814020e+01   1.0182259e+02   2.6335257e+02   3.4434184e+02   3.1736261e+02   1.8519763e+02  -1.6295213e+01  -2.2674742e+02  -3.8292050e+02  -4.3559851e+02  -3.6983653e+02  -2.0501429e+02   1.0479880e+01   2.1539534e+02   3.5078654e+02   3.7922765e+02   2.9237608e+02   1.1782387e+02  -9.3300641e+01  -2.7783845e+02  -3.8501231e+02  -3.8470288e+02  -2.8216534e+02  -1.0566234e+02   9.2878417e+01   2.5747611e+02   3.4145562e+02   3.1752686e+02   1.9250884e+02   4.7537341e+00  -1.8597919e+02  -3.2097416e+02  -3.6056669e+02  -2.9778188e+02  -1.5694355e+02   2.1078056e+01   1.8859915e+02   3.0414394e+02   3.3782040e+02   2.7630485e+02   1.2525240e+02  -7.8563729e+01  -2.8139524e+02  -4.1784417e+02  -4.3734955e+02  -3.2734663e+02  -1.2144380e+02   1.1443509e+02   3.0137708e+02   3.8383546e+02   3.4098589e+02   1.9592448e+02  -2.3778549e+00  -1.9477235e+02  -3.2818287e+02  -3.7170357e+02  -3.2059258e+02  -1.9139963e+02  -1.7744501e+01   1.5502921e+02   2.8174787e+02   3.2895559e+02   2.8232414e+02   1.5062251e+02  -3.1610549e+01  -2.1085460e+02  -3.3585943e+02  -3.6636115e+02  -2.9271014e+02  -1.3562289e+02   5.5156984e+01   2.2286987e+02   3.1407106e+02   3.0025864e+02   1.8655881e+02   4.2419428e+00  -1.9249976e+02  -3.4455061e+02  -4.0300917e+02  -3.4449903e+02  -1.8279534e+02   3.8864243e+01   2.5271570e+02   3.9319504e+02   4.1560941e+02   3.1292424e+02   1.1825198e+02  -1.0896765e+02  -3.0041011e+02  -4.0703764e+02  -4.0302668e+02  -2.9383943e+02  -1.1252442e+02   9.3128477e+01   2.7230367e+02   3.7848235e+02   3.8435433e+02   2.8500084e+02   1.0498094e+02  -1.0441054e+02  -2.8088815e+02  -3.6936002e+02  -3.4057176e+02  -2.0425758e+02  -3.0179525e+00   1.9816901e+02   3.3647161e+02   3.7197430e+02   2.9783288e+02   1.4129276e+02  -5.0594074e+01  -2.2502226e+02  -3.3347395e+02  -3.4580991e+02  -2.5474810e+02  -8.1693638e+01   1.2861055e+02   3.1648386e+02   4.2358783e+02   4.1508077e+02   2.9225781e+02   9.5174665e+01  -1.1463523e+02  -2.7366043e+02  -3.4263860e+02  -3.0952145e+02  -1.9013467e+02  -1.7605901e+01   1.6669109e+02   3.1647138e+02   3.9142001e+02   3.6272910e+02   2.2766116e+02   1.9819068e+01  -1.9250386e+02  -3.3622624e+02  -3.5773435e+02  -2.5078120e+02  -5.4871240e+01   1.5955851e+02   3.2618356e+02   4.0499198e+02   3.8765442e+02   2.9261023e+02   1.4823672e+02  -1.3947428e+01  -1.6049572e+02  -2.5625690e+02  -2.6861741e+02  -1.8163733e+02  -1.1012245e+01   1.9854876e+02   3.8045188e+02   4.7318278e+02   4.4419256e+02   2.9997402e+02   8.8859358e+01  -1.2424244e+02  -2.7161474e+02  -3.1315237e+02  -2.3967461e+02  -7.8857965e+01   1.2005875e+02   2.9697017e+02   3.9903171e+02   3.9925581e+02   3.0105930e+02   1.3399768e+02  -5.2523640e+01  -2.0815728e+02  -2.8881942e+02  -2.7220695e+02  -1.6441988e+02   7.5190464e+00   1.9881716e+02   3.5779431e+02   4.3989229e+02   4.2288211e+02   3.1044230e+02   1.3149179e+02  -6.3659933e+01  -2.1791247e+02  -2.8291495e+02  -2.3175564e+02  -7.2414660e+01   1.5101993e+02   3.6969695e+02   5.1004195e+02   5.2555670e+02   4.0980222e+02   2.0367555e+02  -2.1388079e+01  -1.9102698e+02  -2.5514504e+02  -2.0170380e+02  -5.5830975e+01   1.3410128e+02   3.1615849e+02   4.4447882e+02   4.9332996e+02   4.5264562e+02   3.3412100e+02   1.6610290e+02  -5.8222239e+00  -1.3223409e+02  -1.7152327e+02  -1.0195163e+02   6.4365592e+01   2.8470947e+02   4.9671673e+02   6.3629335e+02   6.5958123e+02   5.5935200e+02   3.6481629e+02   1.3432486e+02  -5.9924032e+01  -1.6103016e+02  -1.4042286e+02  -9.4248933e+00   1.8813189e+02   3.9012638e+02   5.3853229e+02   5.9250963e+02   5.4225335e+02   4.0358839e+02   2.1240321e+02   1.7666845e+01  -1.3178691e+02  -1.9400994e+02  -1.5137309e+02  -1.3081352e+01   1.7853420e+02   3.6458195e+02   4.8438973e+02   4.9763703e+02   4.0016544e+02   2.2333600e+02   2.1252379e+01  -1.4818504e+02  -2.4035196e+02  -2.3215243e+02  -1.2803141e+02   4.2863235e+01   2.3541567e+02   3.9464220e+02   4.7078153e+02   4.3542351e+02   2.9158301e+02   7.7670300e+01  -1.4105398e+02  -3.0148390e+02  -3.5549644e+02  -2.9172851e+02  -1.3260205e+02   7.3857081e+01   2.6919406e+02   3.9916604e+02   4.2602837e+02   3.3774893e+02   1.5290363e+02  -8.2583891e+01  -3.0204244e+02  -4.3805235e+02  -4.4891816e+02  -3.2713280e+02  -1.1109352e+02   1.3613639e+02   3.4163055e+02   4.5067735e+02   4.4118398e+02   3.2023361e+02   1.2760787e+02  -8.6296525e+01  -2.6223344e+02  -3.4698715e+02  -3.1147520e+02  -1.5927837e+02   7.1003984e+01   3.0751622e+02   4.7461843e+02   5.1329520e+02   4.1174794e+02   2.0081225e+02  -4.8788292e+01  -2.6168691e+02  -3.7477899e+02  -3.6189105e+02  -2.3367436e+02  -3.3858794e+01   1.7849527e+02   3.4450058e+02   4.2050013e+02   3.8973628e+02   2.6238326e+02   7.6618017e+01  -1.1799986e+02  -2.7204992e+02  -3.4517673e+02  -3.1951614e+02  -1.9873310e+02  -1.3923433e+01   1.8572099e+02   3.4019807e+02   4.0121322e+02   3.4514301e+02   1.8597950e+02  -2.7886504e+01  -2.3053067e+02  -3.5928013e+02  -3.7655490e+02  -2.7817614e+02  -9.3155276e+01   1.2755318e+02   3.2623483e+02   4.4942471e+02   4.6281507e+02   3.6474330e+02   1.8080164e+02  -3.4316842e+01  -2.1608330e+02  -3.1108632e+02  -2.9476218e+02  -1.7392515e+02   1.3792152e+01   2.1584565e+02   3.7587254e+02   4.4830748e+02   4.1170856e+02   2.7022345e+02   5.8903574e+01  -1.6177451e+02  -3.2456395e+02  -3.7845302e+02  -3.0938430e+02  -1.4058310e+02   7.4177681e+01   2.7042353e+02   4.0292257e+02   4.4781808e+02   4.1156606e+02   3.2108902e+02   2.1710312e+02   1.5013240e+02   1.6655250e+02   3.0257665e+02   5.6324307e+02   9.1243490e+02   1.2813460e+03   1.5843601e+03   1.7497415e+03   1.7453026e+03   1.5853795e+03   1.3226744e+03   1.0281709e+03   7.6762530e+02   5.8341517e+02   4.8642612e+02   4.5519311e+02   4.4412452e+02   4.0100383e+02   2.8185630e+02   6.8294182e+01  -2.1910472e+02  -5.3010116e+02  -8.0098113e+02  -9.7425186e+02  -1.0165887e+03  -9.2212274e+02  -7.1593123e+02  -4.4356102e+02  -1.6001541e+02   7.8894086e+01   2.2629638e+02   2.5625798e+02   1.7626386e+02   2.1595313e+01  -1.5134412e+02  -2.8037148e+02  -3.1880065e+02  -2.4993683e+02  -8.9459797e+01   1.1728251e+02   3.0841572e+02   4.2330752e+02   4.2410471e+02   3.0753748e+02   1.0615193e+02  -1.2138530e+02  -3.0767929e+02  -3.9952557e+02  -3.7845367e+02  -2.5368217e+02  -6.7182323e+01   1.3387794e+02   2.9753904e+02   3.8584095e+02   3.7713575e+02   2.7206550e+02   1.0047526e+02  -8.6843648e+01  -2.2731748e+02  -2.6797809e+02  -1.8832758e+02  -9.2433033e+00   2.1320661e+02   4.1153379e+02   5.2948514e+02   5.4275788e+02   4.5922160e+02   3.0968727e+02   1.3271255e+02  -3.2470636e+01  -1.4582801e+02  -1.7630647e+02  -1.0124617e+02   7.1013803e+01   2.9922119e+02   5.1035363e+02   6.2543102e+02   5.9312615e+02   4.2123078e+02   1.6910442e+02  -6.8153315e+01  -2.1266911e+02  -2.2427414e+02  -1.1772043e+02   5.6903579e+01   2.4383620e+02   3.9603218e+02   4.8868890e+02   5.0512085e+02   4.4338449e+02   3.0757583e+02   1.2513714e+02  -5.6887853e+01  -1.8166707e+02  -2.0059126e+02  -1.0013495e+02   9.0998362e+01   3.0848722e+02   4.8426324e+02   5.6433265e+02   5.2867542e+02   3.9319599e+02   1.9971370e+02   1.5771900e+00  -1.4608658e+02  -2.0392450e+02  -1.5491507e+02  -1.2294412e+01   1.8457538e+02   3.7719662e+02   5.0731018e+02   5.3590833e+02   4.5324704e+02   2.8466764e+02   7.7411396e+01  -1.0977993e+02  -2.2439460e+02  -2.3336530e+02  -1.3335955e+02   4.6544617e+01   2.5499256e+02   4.3193956e+02   5.2446358e+02   5.0693403e+02   3.8443242e+02   1.9527668e+02  -4.9223813e+00  -1.5879042e+02  -2.2180576e+02  -1.7518924e+02  -2.8334862e+01   1.7578979e+02   3.7922906e+02   5.2025218e+02   5.5249632e+02   4.6536337e+02   2.8236977e+02   6.0481337e+01  -1.3592388e+02  -2.4768538e+02  -2.4426411e+02  -1.2845749e+02   6.4388259e+01   2.7801808e+02   4.4854538e+02   5.2922912e+02   5.0088903e+02   3.7678252e+02   2.0166183e+02   2.8284882e+01  -9.4869825e+01  -1.3925583e+02  -9.9454227e+01   1.1910268e+01   1.7024591e+02   3.4017103e+02   4.7955342e+02   5.4476560e+02   5.0544756e+02   3.6037078e+02   1.4428572e+02  -7.5753365e+01  -2.2591335e+02  -2.5416975e+02  -1.5344212e+02   3.7657009e+01   2.5096393e+02   4.1772490e+02   4.9233046e+02   4.6097414e+02   3.4098958e+02   1.6845253e+02  -9.8347259e+00  -1.4936233e+02  -2.1058213e+02  -1.7439719e+02  -4.4563066e+01   1.3985241e+02   3.2421444e+02   4.4915651e+02   4.7591712e+02   4.0144424e+02   2.5476026e+02   8.2323408e+01  -6.7270210e+01  -1.6068071e+02  -1.7756515e+02  -1.1510528e+02   1.7726912e+01   1.9182131e+02   3.6657203e+02   4.8555760e+02   5.0442792e+02   4.0668640e+02   2.1482500e+02  -8.2248065e+00  -1.9084753e+02  -2.7242945e+02  -2.3614200e+02  -1.0083059e+02   8.4983885e+01   2.6640934e+02   3.9580458e+02   4.4519200e+02   4.0370546e+02   2.7546796e+02   8.8488163e+01  -1.1223369e+02  -2.6794188e+02  -3.2499811e+02  -2.5779156e+02  -8.3525021e+01   1.4292956e+02   3.4432487e+02   4.5462912e+02   4.4410652e+02   3.2451750e+02   1.4177378e+02  -4.6141924e+01  -1.8865014e+02  -2.5724998e+02  -2.4056506e+02  -1.4469218e+02   8.2752234e+00   1.8612018e+02   3.4391115e+02   4.3848363e+02   4.3422072e+02   3.2743273e+02   1.4277917e+02  -6.2227378e+01  -2.2530396e+02  -2.9240649e+02  -2.4402851e+02  -9.6518149e+01   1.0254473e+02   2.9027930e+02   4.0999358e+02   4.2545449e+02   3.3151382e+02   1.5630238e+02  -4.5352051e+01  -2.1408417e+02  -2.9962346e+02  -2.8007933e+02  -1.6573939e+02   6.8787267e+00   1.8644679e+02   3.2498743e+02   3.8938431e+02   3.6745775e+02   2.6381732e+02   1.0179614e+02  -8.1645314e+01  -2.3683142e+02  -3.1549108e+02  -2.8841597e+02  -1.5628160e+02   3.9474311e+01   2.3223147e+02   3.5358012e+02   3.6077937e+02   2.4980417e+02   5.9073318e+01  -1.5163936e+02  -3.2105404e+02  -4.0498032e+02  -3.8185088e+02  -2.5898407e+02  -6.7183981e+01   1.4120292e+02   3.0718067e+02   3.8062894e+02   3.3667118e+02   1.9001262e+02  -1.1587593e+01  -2.0497619e+02  -3.3430720e+02  -3.7223428e+02  -3.1690106e+02  -1.8925522e+02  -2.4435790e+01   1.3842992e+02   2.6148450e+02   3.0774358e+02   2.5652404e+02   1.0967616e+02  -9.7026709e+01  -3.0242647e+02  -4.3852532e+02  -4.5324582e+02  -3.3813207e+02  -1.2647313e+02   1.1718485e+02   3.1767764e+02   4.1977218e+02   3.9983272e+02   2.6864733e+02   6.9440590e+01  -1.4134864e+02  -3.0655959e+02  -3.7958228e+02  -3.4369596e+02  -2.0889973e+02  -1.7838574e+01   1.7299219e+02   3.0834324e+02   3.4994262e+02   2.8830290e+02   1.4047252e+02  -5.2065132e+01  -2.4157653e+02  -3.7652495e+02  -4.2151376e+02  -3.6039512e+02  -2.0490470e+02   2.3624182e+00   1.9731049e+02   3.1687763e+02   3.1695622e+02   1.9466763e+02  -8.1159367e+00  -2.2757419e+02  -3.9122609e+02  -4.4927495e+02  -3.8627770e+02  -2.2347105e+02  -7.2143183e+00   2.0141789e+02   3.4558727e+02   3.8756640e+02   3.1693888e+02   1.5788345e+02  -4.3405961e+01  -2.2654355e+02  -3.4030049e+02  -3.5374072e+02  -2.6475838e+02  -1.0125515e+02   9.1381634e+01   2.5731746e+02   3.4875601e+02   3.3509256e+02   2.1863366e+02   3.2645465e+01  -1.6599332e+02  -3.1582542e+02  -3.7217945e+02  -3.2212288e+02  -1.8324991e+02  -2.6268531e+00   1.6922137e+02   2.8409346e+02   3.1509240e+02   2.5217589e+02   1.0893239e+02  -7.7510190e+01  -2.5896804e+02  -3.8246090e+02  -4.0853918e+02  -3.2324115e+02  -1.4779901e+02   6.9397092e+01   2.6353554e+02   3.7983962e+02   3.8497575e+02   2.8124181e+02   1.0316597e+02  -9.2363406e+01  -2.4286312e+02  -2.9963495e+02  -2.4301226e+02  -8.5635290e+01   1.2606182e+02   3.2942249e+02   4.6613202e+02   4.9726294e+02   4.2015062e+02   2.6265654e+02   7.7583449e+01  -7.9430041e+01  -1.6802830e+02  -1.7160086e+02  -9.6608144e+01   3.0221100e+01   1.7745821e+02   3.1240685e+02   4.0850953e+02   4.3797737e+02   3.8740751e+02   2.5789370e+02   7.9599797e+01  -9.6762102e+01  -2.1234270e+02  -2.2270349e+02  -1.2058018e+02   5.9093795e+01   2.5332728e+02   3.9343374e+02   4.3216380e+02   3.5793407e+02   1.9561135e+02  -2.5303757e+00  -1.8050509e+02  -2.8956934e+02  -3.0581113e+02  -2.2985427e+02  -8.8576659e+01   7.8944815e+01   2.2550649e+02   3.1607844e+02   3.2560789e+02   2.4703531e+02   9.6909052e+01  -9.0580874e+01  -2.6384295e+02  -3.6827374e+02  -3.6704930e+02  -2.5532329e+02  -6.5746340e+01   1.3826500e+02   2.9069208e+02   3.4411970e+02   2.8529157e+02   1.3838141e+02  -5.0544274e+01  -2.2784471e+02  -3.4712471e+02  -3.7997365e+02  -3.1906639e+02  -1.8041415e+02   1.1720708e+00   1.7579687e+02   2.9768762e+02   3.3019579e+02   2.6324663e+02   1.1550105e+02  -7.5103816e+01  -2.5227005e+02  -3.6267542e+02  -3.6999427e+02  -2.6253881e+02  -6.8305830e+01   1.5329496e+02   3.3034400e+02   4.0262706e+02   3.4346325e+02   1.7542742e+02  -4.6692768e+01  -2.4882484e+02  -3.7326088e+02  -3.8949544e+02  -2.9966572e+02  -1.3328067e+02   6.4840688e+01   2.4595572e+02   3.6552252e+02   3.8939378e+02   3.0668202e+02   1.3644231e+02  -7.5311459e+01  -2.6723071e+02  -3.8594869e+02  -3.9536282e+02  -2.9674847e+02  -1.1635688e+02   9.6380643e+01   2.8748966e+02   4.0668620e+02   4.2150199e+02   3.2449829e+02   1.3976975e+02  -7.9535849e+01  -2.6564219e+02  -3.5404093e+02  -3.1625163e+02  -1.6503517e+02   4.8161023e+01   2.5120733e+02   3.8226766e+02   4.0911747e+02   3.3236508e+02   1.7861382e+02  -7.0629668e+00  -1.7844597e+02  -2.9543502e+02  -3.2454587e+02  -2.5444153e+02  -9.7028354e+01   1.0690962e+02   2.9711498e+02   4.1512851e+02   4.2071720e+02   3.1557296e+02   1.3434579e+02  -6.0414063e+01  -2.0548814e+02  -2.5798146e+02  -2.0644179e+02  -7.0597938e+01   1.0265094e+02   2.6082873e+02   3.5669400e+02   3.6068576e+02   2.7252579e+02   1.1390520e+02  -6.8521838e+01  -2.1809518e+02  -2.8529950e+02  -2.4042650e+02  -8.5497598e+01   1.4914046e+02   4.1672163e+02   6.6617892e+02   8.5938556e+02   9.8481415e+02   1.0456558e+03   1.0643368e+03   1.0658595e+03   1.0717654e+03   1.1010718e+03   1.1628335e+03   1.2539284e+03   1.3545759e+03   1.4315664e+03   1.4369482e+03   1.3296306e+03   1.0883840e+03   7.2605770e+02   2.9308606e+02  -1.3311864e+02  -4.7623173e+02  -6.8088328e+02  -7.3502052e+02  -6.6805535e+02  -5.3746889e+02  -4.0602052e+02  -3.2056164e+02  -2.9814780e+02  -3.2847530e+02  -3.8683454e+02  -4.4130342e+02  -4.6551608e+02  -4.3672543e+02  -3.4250375e+02  -1.8439894e+02   2.1095125e+01   2.3437833e+02   4.0325648e+02   4.7663317e+02   4.3183689e+02   2.8430190e+02   8.4536368e+01  -9.8166018e+01  -2.0571350e+02  -2.1227467e+02  -1.2404938e+02   2.5073651e+01   1.9344946e+02   3.4018842e+02   4.3133218e+02   4.4400945e+02   3.6647426e+02   2.1270357e+02   2.2675981e+01  -1.4413602e+02  -2.2685363e+02  -1.9019595e+02  -4.2633617e+01   1.6908891e+02   3.7634077e+02   5.1288762e+02   5.3963789e+02   4.5328605e+02   2.8147706e+02   7.2283675e+01  -1.1869336e+02  -2.3915405e+02  -2.5426969e+02  -1.5679801e+02   2.9789996e+01   2.5379032e+02   4.4847878e+02   5.5523170e+02   5.4088643e+02   4.1218406e+02   2.1184956e+02   1.2865351e+00  -1.5470835e+02  -2.1307570e+02  -1.6079927e+02  -2.0538059e+01   1.6133186e+02   3.3069370e+02   4.4179132e+02   4.7107984e+02   4.1623494e+02   2.9784565e+02   1.4743618e+02   6.9756146e+00  -8.9790308e+01  -1.1664148e+02  -6.6384248e+01   4.8491977e+01   1.9277000e+02   3.2434401e+02   4.0221821e+02   4.0102603e+02   3.2085932e+02   1.8184622e+02   2.5308409e+01  -1.0423180e+02  -1.6714064e+02  -1.4319682e+02  -3.5630845e+01   1.2436147e+02   2.9320361e+02   4.2184715e+02   4.7168964e+02   4.2489363e+02   2.9254133e+02   1.0913415e+02  -7.6548024e+01  -2.1300082e+02  -2.6145979e+02  -2.0479947e+02  -5.8715480e+01   1.3572651e+02   3.2059022e+02   4.4099211e+02   4.6283412e+02   3.8207891e+02   2.2588405e+02   4.4271870e+01  -1.1253551e+02  -2.0215095e+02  -2.0377721e+02  -1.1869377e+02   3.0694053e+01   2.0596740e+02   3.5832512e+02   4.4249183e+02   4.2629002e+02   3.0723037e+02   1.1849697e+02  -7.9801946e+01  -2.2200587e+02  -2.5944446e+02  -1.8064838e+02  -1.6980251e+01   1.7436772e+02   3.3356249e+02   4.1397784e+02   4.0011419e+02   3.0127286e+02   1.4718685e+02  -2.5861110e+01  -1.7643746e+02  -2.6599271e+02  -2.6488976e+02  -1.6736655e+02   4.8679350e+00   2.0428040e+02   3.6789216e+02   4.4422045e+02   4.0916188e+02   2.7908648e+02   1.0237998e+02  -6.1848705e+01  -1.6390701e+02  -1.7811342e+02  -1.0932475e+02   1.7947170e+01   1.6702329e+02   3.0284955e+02   3.9567560e+02   4.2307511e+02   3.7295321e+02   2.5163814e+02   8.2447500e+01  -8.8410354e+01  -2.0680841e+02  -2.3092192e+02  -1.4757994e+02   2.0671459e+01   2.1781316e+02   3.7951852e+02   4.5914029e+02   4.3689217e+02   3.2741242e+02   1.6581321e+02  -1.2146999e+00  -1.3437273e+02  -2.0246354e+02  -1.8729026e+02  -8.7303438e+01   7.0343749e+01   2.4118298e+02   3.6895505e+02   4.0676926e+02   3.3850373e+02   1.8643363e+02   2.3286663e+00  -1.5326585e+02  -2.3487409e+02  -2.2446491e+02  -1.3218769e+02   1.4065805e+01   1.8043847e+02   3.2697162e+02   4.2053881e+02   4.2823183e+02   3.3631886e+02   1.5975541e+02  -5.7324001e+01  -2.4638315e+02  -3.4225337e+02  -3.0933008e+02  -1.5866611e+02   5.5512067e+01   2.6085608e+02   3.9431536e+02   4.2046179e+02   3.3928514e+02   1.8133852e+02  -9.6712196e+00  -1.8327535e+02  -2.9302453e+02  -3.0708707e+02  -2.1643728e+02  -4.2976916e+01   1.6072888e+02   3.2998974e+02   4.0987352e+02   3.7382857e+02   2.3709536e+02   4.2759769e+01  -1.5127567e+02  -2.9178330e+02  -3.4596159e+02  -3.0487774e+02  -1.7899209e+02   8.4006962e-01   1.9302388e+02   3.4645255e+02   4.1589664e+02   3.7809625e+02   2.3634101e+02   3.0498395e+01  -1.7707344e+02  -3.2223087e+02  -3.5582311e+02  -2.6826761e+02  -8.8152203e+01   1.2759698e+02   3.1000183e+02   4.0792550e+02   3.9697203e+02   2.8837168e+02   1.1957461e+02  -6.1322179e+01  -2.0782493e+02  -2.8383813e+02  -2.6842742e+02  -1.5885482e+02   1.8857443e+01   2.1912318e+02   3.7978700e+02   4.4656750e+02   3.8946906e+02   2.2585319e+02   9.9879403e+00  -1.8563377e+02  -2.9582029e+02  -2.9355001e+02  -1.8787007e+02  -2.1953482e+01   1.5128653e+02   2.8717814e+02   3.5411101e+02   3.4061402e+02   2.4961287e+02   9.9475368e+01  -8.2171158e+01  -2.5048290e+02  -3.5924028e+02  -3.6990259e+02  -2.7010106e+02  -8.2694387e+01   1.3604595e+02   3.1427583e+02   3.8914589e+02   3.3559020e+02   1.7392693e+02  -4.0054240e+01  -2.3337677e+02  -3.4725824e+02  -3.5412688e+02  -2.6292177e+02  -1.1069373e+02   5.8242654e+01   1.9990582e+02   2.8433699e+02   2.9383076e+02   2.2557855e+02   9.0216622e+01  -8.1881932e+01  -2.4833879e+02  -3.5754572e+02  -3.6691108e+02  -2.6373584e+02  -7.0722812e+01   1.5245361e+02   3.3279020e+02   4.1257195e+02   3.6844272e+02   2.2543489e+02   3.7501283e+01  -1.3144679e+02  -2.3382307e+02  -2.4854892e+02  -1.8374299e+02  -5.8828180e+01   9.5837212e+01   2.4624437e+02   3.5537315e+02   3.8765563e+02   3.2607769e+02   1.8128760e+02  -5.6017909e+00  -1.7242407e+02  -2.5969134e+02  -2.3608435e+02  -1.1079020e+02   7.5438179e+01   2.6322472e+02   3.9791981e+02   4.4419323e+02   3.9634701e+02   2.6877515e+02   9.7984454e+01  -7.1963992e+01  -1.9753499e+02  -2.4395232e+02  -1.9817020e+02  -7.5401676e+01   9.0822211e+01   2.5163565e+02   3.6039769e+02   3.8832575e+02   3.2596853e+02   1.9177784e+02   2.2325604e+01  -1.3586902e+02  -2.3908946e+02  -2.5619082e+02  -1.8040658e+02  -2.8938869e+01   1.5554120e+02   3.1901525e+02   4.0776686e+02   3.9102468e+02   2.6793957e+02   7.6170213e+01  -1.2721630e+02  -2.7759442e+02  -3.3207179e+02  -2.7878623e+02  -1.3593243e+02   4.9648616e+01   2.2603818e+02   3.4761034e+02   3.8274673e+02   3.1862660e+02   1.6825053e+02  -3.1893640e+01  -2.2569176e+02  -3.5406810e+02  -3.7291711e+02  -2.7126597e+02  -7.7301393e+01   1.4575050e+02   3.2654360e+02   4.1130382e+02   3.7775399e+02   2.4353355e+02   5.5258139e+01  -1.3021553e+02  -2.6349882e+02  -3.0909539e+02  -2.5907764e+02  -1.2563975e+02   5.4782899e+01   2.3269589e+02   3.5578308e+02   3.8378091e+02   3.0567961e+02   1.4129832e+02  -5.9506688e+01  -2.3331561e+02  -3.2767927e+02  -3.1420560e+02  -1.9811187e+02  -1.3760847e+01   1.8597586e+02   3.5031429e+02   4.3917254e+02   4.3227551e+02   3.3694852e+02   1.8262579e+02   1.6500868e+01  -1.0997776e+02  -1.5556782e+02  -1.0317503e+02   3.6182930e+01   2.2182867e+02   3.9929637e+02   5.1747722e+02   5.4365753e+02   4.7010029e+02   3.1811224e+02   1.2671380e+02  -5.2539109e+01  -1.7205260e+02  -1.9852341e+02  -1.2095289e+02   3.9257644e+01   2.3543894e+02   4.0793815e+02   5.0369973e+02   4.9162423e+02   3.7583311e+02   1.8973625e+02  -9.8228070e+00  -1.6377280e+02  -2.3124858e+02  -1.9577417e+02  -7.3659638e+01   9.8957015e+01   2.7056792e+02   3.9222493e+02   4.2661379e+02   3.6190328e+02   2.1022172e+02   1.0748809e+01  -1.8416134e+02  -3.1739086e+02  -3.5054366e+02  -2.7331349e+02  -1.0902359e+02   9.0107575e+01   2.6102533e+02   3.5044386e+02   3.3148291e+02   2.1039365e+02   2.2143795e+01  -1.7701016e+02  -3.2951691e+02  -3.9303396e+02  -3.5195067e+02  -2.2430727e+02  -5.0402266e+01   1.1420962e+02   2.2142269e+02   2.4272044e+02   1.7535891e+02   4.6351037e+01  -1.0490221e+02  -2.3506451e+02  -3.0807756e+02  -3.0572109e+02  -2.2629429e+02  -8.9607696e+01   7.1297287e+01   2.1188523e+02   2.8863245e+02   2.7280982e+02   1.6054805e+02  -2.0154099e+01  -2.1748619e+02  -3.7261873e+02  -4.3824318e+02  -3.9636384e+02  -2.6164184e+02  -7.4457629e+01   1.1274475e+02   2.5403524e+02   3.1727787e+02   2.8969362e+02   1.8036470e+02   1.8384541e+01  -1.5522279e+02  -2.9159707e+02  -3.4977455e+02  -3.0779057e+02  -1.7222949e+02   1.7510083e+01   2.0356517e+02   3.2498629e+02   3.4068041e+02   2.4287329e+02   6.0636166e+01  -1.4767655e+02  -3.1688580e+02  -3.9743924e+02  -3.6837352e+02  -2.4602582e+02  -7.5543526e+01   9.0381989e+01   2.0787811e+02   2.5219285e+02   2.1950496e+02   1.2082068e+02  -2.2463186e+01  -1.8033855e+02  -3.1419075e+02  -3.8568940e+02  -3.6725900e+02  -2.5810369e+02  -8.5915240e+01   9.2199177e+01   2.1507223e+02   2.3766952e+02   1.5101531e+02  -1.5726388e+01  -2.0931869e+02  -3.7261023e+02  -4.5696564e+02  -4.4049388e+02  -3.3024126e+02  -1.5526830e+02   3.7115885e+01   1.9241470e+02   2.6521830e+02   2.3525785e+02   1.0874059e+02  -7.7583843e+01  -2.6877846e+02  -4.1149466e+02  -4.6788530e+02  -4.2533031e+02  -3.0286182e+02  -1.3629018e+02   2.6563768e+01   1.4512704e+02   1.9440838e+02   1.7025862e+02   9.1876743e+01  -6.8759050e+00  -8.2419346e+01  -9.0912963e+01   2.4280485e-01   2.0376358e+02   5.0590279e+02   8.5880826e+02   1.1903889e+03   1.4246725e+03   1.5052094e+03   1.4179325e+03   1.1997874e+03   9.2282703e+02   6.6665030e+02   4.8641250e+02   3.9575391e+02   3.6385624e+02   3.3976773e+02   2.6873841e+02   1.2027528e+02  -1.0745301e+02  -3.9104254e+02  -6.8789234e+02  -9.5242831e+02  -1.1437129e+03  -1.2307884e+03  -1.1993088e+03  -1.0565062e+03  -8.3018100e+02  -5.6571113e+02  -3.2038899e+02  -1.4503686e+02  -7.1351198e+01  -1.0463671e+02  -2.1474225e+02  -3.5163732e+02  -4.5685708e+02  -4.8663710e+02  -4.2536077e+02  -2.8801297e+02  -1.1135906e+02   5.7035259e+01   1.7575662e+02   2.1613514e+02   1.7024890e+02   5.2448830e+01  -1.0731921e+02  -2.6474013e+02  -3.7735183e+02  -4.1034508e+02  -3.5393761e+02  -2.2289329e+02  -5.7036657e+01   9.1065088e+01   1.7738875e+02   1.7227413e+02   7.6054413e+01  -8.3430624e+01  -2.6101409e+02  -4.0141930e+02  -4.6039942e+02  -4.1641369e+02  -2.7945628e+02  -9.1635165e+01   9.2513872e+01   2.1888911e+02   2.5156348e+02   1.8614142e+02   4.4738557e+01  -1.3127407e+02  -2.9523661e+02  -4.0541267e+02  -4.3204529e+02  -3.6419272e+02  -2.1779415e+02  -3.0667040e+01   1.4252588e+02   2.4655771e+02   2.4873611e+02   1.4802577e+02  -1.9864291e+01  -2.0115660e+02  -3.4092135e+02  -4.0419145e+02  -3.7788855e+02  -2.7609863e+02  -1.3116466e+02   1.8562318e+01   1.2834218e+02   1.6679592e+02   1.1650704e+02  -1.2603643e+01  -1.8011539e+02  -3.3576292e+02  -4.2853876e+02  -4.3087253e+02  -3.4178146e+02  -1.8834151e+02  -1.3050481e+01   1.4399933e+02   2.4342963e+02   2.5994028e+02   1.8686639e+02   3.6747630e+01  -1.4995888e+02  -3.1961833e+02  -4.1763046e+02  -4.1171179e+02  -3.0669727e+02  -1.3919061e+02   3.3245067e+01   1.5650443e+02   1.9678033e+02   1.4952399e+02   3.3349014e+01  -1.1624790e+02  -2.5610341e+02  -3.4728306e+02  -3.6333120e+02  -2.9473797e+02  -1.5587358e+02   1.4175682e+01   1.6708672e+02   2.5647830e+02   2.5538933e+02   1.6314702e+02   6.3393468e+00  -1.6810786e+02  -3.1246152e+02  -3.8840704e+02  -3.8156475e+02  -2.9567506e+02  -1.5766292e+02  -5.1407136e+00   1.2090310e+02   1.8509062e+02   1.6698431e+02   6.7487750e+01  -8.5947754e+01  -2.5020399e+02  -3.7330700e+02  -4.1387743e+02  -3.5703692e+02  -2.1790800e+02  -3.6993025e+01   1.3092830e+02   2.3686623e+02   2.5227943e+02   1.7236229e+02   2.2558672e+01  -1.5284483e+02  -3.0089492e+02  -3.7709241e+02  -3.5806827e+02  -2.5013404e+02  -8.7800754e+01   8.1310688e+01   2.0753836e+02   2.5715336e+02   2.1590004e+02   9.4755922e+01  -7.5472917e+01  -2.5074197e+02  -3.8048402e+02  -4.2219602e+02  -3.5667920e+02  -1.9597192e+02   1.3870590e+01   2.0863712e+02   3.2702922e+02   3.3357894e+02   2.3139319e+02   5.5202109e+01  -1.3958120e+02  -2.9676989e+02  -3.7753585e+02  -3.6537933e+02  -2.6818116e+02  -1.1430067e+02   5.6009820e+01   1.9437605e+02   2.5925816e+02   2.3075046e+02   1.1379937e+02  -5.9674630e+01  -2.3591714e+02  -3.6180073e+02  -3.9941084e+02  -3.4052343e+02  -2.0493026e+02  -3.4640511e+01   1.1765867e+02   2.0754535e+02   2.0888400e+02   1.2086406e+02  -3.2564408e+01  -2.0727795e+02  -3.5268831e+02  -4.2389921e+02  -3.9892991e+02  -2.8518392e+02  -1.1200717e+02   6.9530743e+01   2.1024990e+02   2.7192598e+02   2.3945055e+02   1.2457222e+02  -3.9433377e+01  -2.0647799e+02  -3.3193541e+02  -3.8133359e+02  -3.4520496e+02  -2.3195237e+02  -7.6616604e+01   7.9220855e+01   1.8717371e+02   2.1314673e+02   1.4469768e+02  -1.0535815e+00  -1.7852676e+02  -3.3202696e+02  -4.0975605e+02  -3.8813647e+02  -2.7258044e+02  -1.0044636e+02   7.7813767e+01   2.1304895e+02   2.7247274e+02   2.4103703e+02   1.2653496e+02  -4.3335258e+01  -2.2438739e+02  -3.6712313e+02  -4.3056880e+02  -3.9348481e+02  -2.6871116e+02  -9.5399449e+01   7.2769909e+01   1.8525819e+02   2.1597760e+02   1.6309895e+02   5.1525746e+01  -8.3670993e+01  -2.0523271e+02  -2.8262668e+02  -2.9656422e+02  -2.4220293e+02  -1.3065679e+02   1.1330079e+01   1.4841618e+02   2.3761709e+02   2.4583929e+02   1.6035233e+02  -1.6835790e+00  -1.9421396e+02  -3.5520716e+02  -4.2946044e+02  -3.8500286e+02  -2.3678665e+02  -3.2300257e+01   1.5892354e+02   2.7787449e+02   2.9349472e+02   2.1279899e+02   6.9758245e+01  -9.3886406e+01  -2.3837855e+02  -3.3786991e+02  -3.7219730e+02  -3.3153310e+02  -2.1641447e+02  -4.7864357e+01   1.3039481e+02   2.6292559e+02   2.9741698e+02   2.1666710e+02   4.4692064e+01  -1.5676972e+02  -3.1588466e+02  -3.8252329e+02  -3.3893502e+02  -2.0891088e+02  -3.6936295e+01   1.2783837e+02   2.4289856e+02   2.7978654e+02   2.2745551e+02   9.4547588e+01  -8.8362553e+01  -2.7018785e+02  -3.9510919e+02  -4.2043620e+02  -3.3553235e+02  -1.6821509e+02   2.6780712e+01   1.8439045e+02   2.5622166e+02   2.2563375e+02   1.1111551e+02  -4.7169820e+01  -1.9953604e+02  -3.0426051e+02  -3.3650299e+02  -2.9234258e+02  -1.8545672e+02  -4.0809203e+01   1.0897091e+02   2.2772268e+02   2.8329838e+02   2.5430477e+02   1.4093209e+02  -3.2231562e+01  -2.1717749e+02  -3.5605370e+02  -4.0310760e+02  -3.4194510e+02  -1.9541674e+02  -1.3581204e+01   1.4150463e+02   2.2562810e+02   2.2058896e+02   1.3587025e+02   3.5805112e+00  -1.4132557e+02  -2.6730217e+02  -3.4710991e+02  -3.5904453e+02  -2.9195558e+02  -1.5330964e+02   2.7145646e+01   1.9741990e+02   3.0196391e+02   3.0075592e+02   1.9258945e+02   1.2328931e+01  -1.7577599e+02  -3.0862059e+02  -3.4941292e+02  -2.8938205e+02  -1.5622542e+02   7.4017239e+00   1.5474524e+02   2.4771321e+02   2.6225548e+02   1.9248252e+02   5.6173221e+01  -1.0846983e+02  -2.5570960e+02  -3.3806325e+02  -3.2969489e+02  -2.3181164e+02  -7.6202275e+01   9.0663227e+01   2.2139621e+02   2.7932509e+02   2.4975978e+02   1.4161428e+02  -1.4960399e+01  -1.7796698e+02  -3.0297564e+02  -3.5339337e+02  -3.1146161e+02  -1.8808949e+02  -1.6701860e+01   1.5040849e+02   2.6285769e+02   2.8380529e+02   2.0650865e+02   5.3330589e+01  -1.2808083e+02  -2.8345744e+02  -3.7074843e+02  -3.6683344e+02  -2.7443465e+02  -1.2023560e+02   5.6525610e+01   2.0654010e+02   2.8707145e+02   2.7050738e+02   1.5346902e+02  -3.5002580e+01  -2.3736339e+02  -3.8670638e+02  -4.3001807e+02  -3.5141080e+02  -1.7835564e+02   3.2029384e+01   2.0927708e+02   3.0218596e+02   2.8951799e+02   1.8280883e+02   1.7732395e+01  -1.5938322e+02  -3.0501965e+02  -3.8631151e+02  -3.8297874e+02  -2.9761036e+02  -1.5019485e+02   2.3964263e+01   1.7960781e+02   2.7229128e+02   2.7429688e+02   1.8324858e+02   2.2816244e+01  -1.5681395e+02  -2.9793342e+02  -3.5371044e+02  -3.0382340e+02  -1.6525283e+02   1.8857424e+01   1.9205860e+02   3.0401650e+02   3.2530268e+02   2.5255229e+02   1.0732966e+02  -6.8840450e+01  -2.2854487e+02  -3.2415367e+02  -3.2583297e+02  -2.2611879e+02  -4.6847497e+01   1.6354675e+02   3.4514427e+02   4.4526875e+02   4.3856864e+02   3.3095038e+02   1.6064096e+02  -2.0065933e+01  -1.5570840e+02  -2.1118440e+02  -1.7371145e+02  -6.1053703e+01   9.2200856e+01   2.4122991e+02   3.4336613e+02   3.7212252e+02   3.1979992e+02   1.9890577e+02   4.0696832e+01  -1.1256028e+02  -2.1919950e+02  -2.4639766e+02  -1.8421131e+02  -4.9083139e+01   1.1632074e+02   2.6185657e+02   3.4152673e+02   3.3473300e+02   2.4859881e+02   1.1052177e+02  -3.8627759e+01  -1.6511220e+02  -2.3879070e+02  -2.4524484e+02  -1.8033372e+02  -5.3849038e+01   1.0477127e+02   2.4870028e+02   3.2482772e+02   2.9763275e+02   1.6396518e+02  -3.7072203e+01  -2.3966368e+02  -3.7390836e+02  -3.9930964e+02  -3.1323037e+02  -1.5487660e+02   1.9465890e+01   1.5397630e+02   2.1398960e+02   1.8758094e+02   8.3406719e+01  -6.9167685e+01  -2.3138708e+02  -3.5844892e+02  -4.1199245e+02  -3.6852914e+02  -2.3850046e+02  -5.8498931e+01   1.1653558e+02   2.3129470e+02   2.5219409e+02   1.7548500e+02   2.5444518e+01  -1.4928809e+02  -2.9988368e+02  -3.8376913e+02  -3.8016064e+02  -2.9275869e+02  -1.4707842e+02   1.3979701e+01   1.4646702e+02   2.1706814e+02   2.0788295e+02   1.2361393e+02  -1.2919798e+01  -1.6480030e+02  -2.9224242e+02  -3.5821369e+02  -3.4421913e+02  -2.5084944e+02  -1.0349898e+02   5.8074391e+01   1.8660475e+02   2.4457217e+02   2.1472807e+02   1.0484998e+02  -5.4350744e+01  -2.1896931e+02  -3.4117049e+02  -3.8683032e+02  -3.4259510e+02  -2.2172906e+02  -6.0215149e+01   9.4177487e+01   1.9639433e+02   2.1295329e+02   1.3942322e+02  -6.6550647e+00  -1.8139144e+02  -3.3651260e+02  -4.2591890e+02  -4.2161615e+02  -3.2756289e+02  -1.7273299e+02  -6.9464783e+00   1.2188631e+02   1.7513329e+02   1.3927105e+02   2.8048787e+01  -1.2921421e+02  -2.8812257e+02  -4.0345303e+02  -4.4103617e+02  -3.8526148e+02  -2.4946560e+02  -7.2525985e+01   9.2761139e+01   1.9614222e+02   2.1001297e+02   1.4037381e+02   1.6335140e+01  -1.1896361e+02  -2.2595704e+02  -2.7811396e+02  -2.6205290e+02  -1.8079320e+02  -5.2324289e+01   9.3094222e+01   2.1637901e+02   2.7591457e+02   2.4754071e+02   1.3004205e+02  -4.4172120e+01  -2.2424689e+02  -3.5297939e+02  -3.8575777e+02  -3.0630660e+02  -1.2841503e+02   1.0814672e+02   3.4705748e+02   5.3092121e+02   6.2160784e+02   6.1360641e+02   5.4198235e+02   4.6666961e+02   4.5504532e+02   5.5038566e+02   7.5541047e+02   1.0295142e+03   1.3026316e+03   1.5084706e+03   1.6007166e+03   1.5673684e+03   1.4220500e+03   1.1950168e+03   9.1841295e+02   6.2258101e+02   3.3624423e+02   8.5576917e+01  -1.0878863e+02  -2.3691271e+02  -3.1093581e+02  -3.5403494e+02  -4.0114857e+02  -4.7760906e+02  -5.9156248e+02  -7.2867117e+02  -8.5548568e+02  -9.3265176e+02  -9.2542646e+02  -8.1830681e+02  -6.2011840e+02  -3.6351217e+02  -9.8013205e+01   1.2108143e+02   2.5217051e+02   2.7200313e+02   1.9015780e+02   4.1771517e+01  -1.2181266e+02  -2.4476409e+02  -2.8787394e+02  -2.3797255e+02  -1.1164632e+02   5.2809518e+01   2.0501490e+02   3.0361373e+02   3.2076794e+02   2.5511998e+02   1.2562412e+02  -3.0281598e+01  -1.7046765e+02  -2.5544301e+02  -2.5805914e+02  -1.7389513e+02  -2.3172563e+01   1.5278424e+02   3.0136474e+02   3.7605488e+02   3.5221793e+02   2.3785551e+02   6.7671749e+01  -1.0400915e+02  -2.2585262e+02  -2.6471980e+02  -2.0936520e+02  -7.8535370e+01   8.9714878e+01   2.5042112e+02   3.5681540e+02   3.7906287e+02   3.0766183e+02   1.5879899e+02  -2.5008319e+01  -1.9241875e+02  -2.9158074e+02  -2.9410429e+02  -1.9893543e+02  -3.7860601e+01   1.3749319e+02   2.7212005e+02   3.2993391e+02   2.9774905e+02   1.8946250e+02   3.9642414e+01  -1.1406866e+02  -2.3324014e+02  -2.8577222e+02  -2.5674597e+02  -1.4784907e+02   1.7916766e+01   1.9330349e+02   3.2575139e+02   3.7115856e+02   3.1149747e+02   1.6649000e+02  -1.7440625e+01  -1.8248815e+02  -2.8178495e+02  -2.8959091e+02  -2.1154162e+02  -6.8576203e+01   9.8716355e+01   2.4940356e+02   3.3960592e+02   3.3982187e+02   2.4562273e+02   7.8793059e+01  -1.0781922e+02  -2.5436872e+02  -3.1519947e+02  -2.7403809e+02  -1.5095194e+02   1.0357923e+01   1.6013358e+02   2.6021877e+02   2.9182789e+02   2.4942298e+02   1.4582738e+02   2.6668298e+00  -1.4554302e+02  -2.5649943e+02  -2.9431389e+02  -2.3997802e+02  -1.0363040e+02   7.3755156e+01   2.3644301e+02   3.2628306e+02   3.1118331e+02   1.9309795e+02   9.5062488e+00  -1.8447133e+02  -3.3004428e+02  -3.8306473e+02  -3.3354917e+02  -1.9908497e+02  -2.2568400e+01   1.4706207e+02   2.6340798e+02   3.0057571e+02   2.5448501e+02   1.4154674e+02  -5.3408941e+00  -1.4430202e+02  -2.3843959e+02  -2.5818420e+02  -1.9516198e+02  -6.7011486e+01   8.8372295e+01   2.2148982e+02   2.8839711e+02   2.6425784e+02   1.5463773e+02  -6.5838493e+00  -1.7266762e+02  -2.9667881e+02  -3.4669348e+02  -3.0942755e+02  -1.9791219e+02  -4.1561146e+01   1.1782184e+02   2.3850316e+02   2.8685925e+02   2.4793885e+02   1.3049416e+02  -3.3684753e+01  -1.9807286e+02  -3.1537294e+02  -3.5210470e+02  -2.9689741e+02  -1.6580945e+02   5.9834996e+00   1.6758140e+02   2.7452762e+02   2.9464626e+02   2.2183583e+02   7.5571676e+01  -1.0101394e+02  -2.5745395e+02  -3.4608575e+02  -3.4189929e+02  -2.4765328e+02  -9.3484925e+01   6.9581775e+01   1.9176201e+02   2.3245687e+02   1.8096789e+02   4.9861638e+01  -1.2329202e+02  -2.9187346e+02  -4.0898178e+02  -4.4303249e+02  -3.8324406e+02  -2.4325991e+02  -6.1137568e+01   1.1185502e+02   2.2240322e+02   2.3417970e+02   1.4098459e+02  -2.7357444e+01  -2.1759847e+02  -3.6825477e+02  -4.3785564e+02  -4.1113611e+02  -3.0365541e+02  -1.5193993e+02   1.5858779e+00   1.1553009e+02   1.6257149e+02   1.3053589e+02   2.1305421e+01  -1.3785217e+02  -3.0674776e+02  -4.3777144e+02  -4.9050303e+02  -4.4747629e+02  -3.1925844e+02  -1.4594777e+02   1.6606238e+01   1.1773273e+02   1.2497480e+02   3.5442649e+01  -1.1894800e+02  -2.8972449e+02  -4.2579348e+02  -4.9161645e+02  -4.7452319e+02  -3.8659784e+02  -2.5513973e+02  -1.1184835e+02   1.1014305e+01   8.5778177e+01   9.1750400e+01   1.9546799e+01  -1.1716337e+02  -2.8183937e+02  -4.1851558e+02  -4.7762144e+02  -4.3518050e+02  -3.0744743e+02  -1.3994533e+02   7.9320491e+00   9.1727375e+01   9.4125568e+01   2.3728591e+01  -9.3141347e+01  -2.2812545e+02  -3.5034032e+02  -4.2936936e+02  -4.3766498e+02  -3.6075506e+02  -2.1015478e+02  -2.7002170e+01   1.2745172e+02   1.9487170e+02   1.4931604e+02   5.8275952e+00  -1.8649322e+02  -3.6538833e+02  -4.7874939e+02  -5.0348844e+02  -4.4396184e+02  -3.2093218e+02  -1.6492017e+02  -1.0998412e+01   1.0802603e+02   1.5905030e+02   1.2185822e+02   4.0115688e-01  -1.7746993e+02  -3.5728564e+02  -4.7898084e+02  -4.9959816e+02  -4.1200018e+02  -2.4736882e+02  -6.3363027e+01   7.9066231e+01   1.3565854e+02   9.5562066e+01  -2.2614428e+01  -1.7916907e+02  -3.2769297e+02  -4.2703558e+02  -4.5208051e+02  -3.9432636e+02  -2.6619324e+02  -9.7795253e+01   6.8895350e+01   1.8864780e+02   2.2839724e+02   1.7560100e+02   3.9808567e+01  -1.3930997e+02  -3.1305015e+02  -4.2867568e+02  -4.5129401e+02  -3.6888566e+02  -2.0716837e+02  -1.4047728e+01   1.4845096e+02   2.2928195e+02   2.0443750e+02   8.8487640e+01  -7.7276998e+01  -2.3883575e+02  -3.5223579e+02  -3.9148326e+02  -3.5650369e+02  -2.6000248e+02  -1.2682920e+02   1.4375905e+01   1.3352669e+02   1.9754556e+02   1.8301735e+02   8.6237319e+01  -7.1232523e+01  -2.4020902e+02  -3.6264410e+02  -3.9349521e+02  -3.1796799e+02  -1.6272918e+02   2.1274917e+01   1.7361429e+02   2.4637588e+02   2.2131653e+02   1.0864636e+02  -5.7527626e+01  -2.2894613e+02  -3.6289922e+02  -4.2321954e+02  -3.9452823e+02  -2.8348845e+02  -1.1755417e+02   5.9128488e+01   1.9703244e+02   2.5492371e+02   2.1294873e+02   8.3228168e+01  -9.5067040e+01  -2.6400419e+02  -3.6954829e+02  -3.7862705e+02  -2.9381423e+02  -1.4612004e+02   1.4620367e+01   1.4212071e+02   2.0446866e+02   1.9338114e+02   1.1832572e+02   1.4350664e+00  -1.3276605e+02  -2.5471415e+02  -3.3365752e+02  -3.4198223e+02  -2.6672082e+02  -1.1563398e+02   7.2592652e+01   2.3949913e+02   3.2654957e+02   2.9641597e+02   1.5587057e+02  -5.1844451e+01  -2.5712528e+02  -3.9667670e+02  -4.3179802e+02  -3.6245199e+02  -2.1750389e+02  -4.5494790e+01   1.0753002e+02   2.0489888e+02   2.2588278e+02   1.6532446e+02   3.7132829e+01  -1.2548374e+02  -2.7206756e+02  -3.5374013e+02  -3.3779235e+02  -2.2167478e+02  -4.2654381e+01   1.4246581e+02   2.7415254e+02   3.1674931e+02   2.6292651e+02   1.3293296e+02  -3.5594312e+01  -2.0334549e+02  -3.2976663e+02  -3.8030966e+02  -3.3565867e+02  -2.0024957e+02  -9.3403208e+00   1.7695423e+02   2.9550044e+02   3.0586007e+02   2.0920645e+02   4.6154006e+01  -1.2573951e+02  -2.5292118e+02  -3.0679078e+02  -2.8462195e+02  -2.0301996e+02  -8.5061522e+01   4.2619678e+01   1.5449954e+02   2.2290870e+02   2.2287727e+02   1.4694643e+02   1.0566443e+01  -1.4414789e+02  -2.6460930e+02  -3.0105971e+02  -2.3511687e+02  -8.0793024e+01   1.1188863e+02   2.8240522e+02   3.7631743e+02   3.6597655e+02   2.5965890e+02   9.5756356e+01  -7.3334866e+01  -1.9586643e+02  -2.4356125e+02  -2.0760403e+02  -1.0532217e+02   3.6387045e+01   1.8372799e+02   3.0456902e+02   3.7427118e+02   3.7679124e+02   3.0985450e+02   1.8970637e+02   5.0096353e+01  -6.5897259e+01  -1.2039419e+02  -8.8685733e+01   2.6217207e+01   1.9347228e+02   3.6458773e+02   4.8793669e+02   5.2668277e+02   4.6637275e+02   3.2571411e+02   1.4503473e+02  -1.9954174e+01  -1.1981935e+02  -1.2551698e+02  -3.8432517e+01   1.1069907e+02   2.7197262e+02   3.9650917e+02   4.4912856e+02   4.1852574e+02   3.1369918e+02   1.6304409e+02   4.6487134e+00  -1.2269650e+02  -1.8602188e+02  -1.6432015e+02  -6.2368043e+01   9.2885313e+01   2.5132658e+02   3.5919786e+02   3.8022645e+02   3.0657694e+02   1.6404628e+02  -2.1239444e+00  -1.4030989e+02  -2.1523929e+02  -2.1242519e+02  -1.3771069e+02  -1.4755783e+01   1.2665679e+02   2.5054011e+02   3.2337990e+02   3.1859918e+02   2.3048777e+02   7.8883449e+01  -9.2002752e+01  -2.2423436e+02  -2.7458989e+02  -2.2488532e+02  -9.4174255e+01   7.1401750e+01   2.1620563e+02   2.9936148e+02   2.9982999e+02   2.2350569e+02   9.3688101e+01  -5.7803401e+01  -1.9347044e+02  -2.7680541e+02  -2.7784087e+02  -1.8895050e+02  -2.8643326e+01   1.5888165e+02   3.1456174e+02   3.8826477e+02   3.6057070e+02   2.4514450e+02   8.5870320e+01  -6.5989832e+01  -1.6933346e+02  -2.0381785e+02  -1.7058884e+02  -8.1041471e+01   4.3750419e+01   1.7717287e+02   2.8811360e+02   3.4311352e+02   3.1880818e+02   2.0991940e+02   4.2932998e+01  -1.2827752e+02  -2.4286254e+02  -2.5654231e+02  -1.5863650e+02   1.7763762e+01   2.1183350e+02   3.5551967e+02   4.0318555e+02   3.4643881e+02   2.1171024e+02   4.7666761e+01  -9.6384811e+01  -1.8491766e+02  -2.0484567e+02  -1.6248064e+02  -7.3621928e+01   4.3690933e+01   1.6611169e+02   2.6402567e+02   3.0792743e+02   2.7527792e+02   1.6400366e+02   4.6415142e+00  -1.5473959e+02  -2.5791004e+02  -2.6926718e+02  -1.8533767e+02  -3.6541289e+01   1.3028014e+02   2.6696571e+02   3.4153588e+02   3.3516285e+02   2.5113169e+02   1.0976859e+02  -5.4643091e+01  -1.9290133e+02  -2.5638086e+02  -2.1906199e+02  -8.4882005e+01   1.0315632e+02   2.8758537e+02   4.0930073e+02   4.3690720e+02   3.6571717e+02   2.2050173e+02   4.1898975e+01  -1.2449201e+02  -2.3747717e+02  -2.6923747e+02  -2.0916100e+02  -7.1991201e+01   1.0632325e+02   2.7958255e+02   4.0592474e+02   4.6412304e+02   4.5604403e+02   4.0512426e+02   3.4474572e+02   3.1444593e+02   3.5438996e+02   4.9202941e+02   7.3523267e+02   1.0605795e+03   1.4094315e+03   1.7024244e+03   1.8677445e+03   1.8643277e+03   1.7040107e+03   1.4424250e+03   1.1545299e+03   9.0552768e+02   7.2696290e+02   6.1575226e+02   5.3975863e+02   4.6262852e+02   3.5150505e+02   1.8752649e+02  -2.8791300e+01  -2.8087095e+02  -5.3731493e+02  -7.5629798e+02  -8.9626986e+02  -9.3059271e+02  -8.5317944e+02  -6.8477857e+02  -4.6009952e+02  -2.2504289e+02  -2.0291335e+01   1.2214586e+02   1.8454471e+02   1.6417512e+02   7.9759738e+01  -3.4561880e+01  -1.3212813e+02  -1.6876011e+02  -1.2010052e+02   8.4204376e+00   1.7984600e+02   3.3993550e+02   4.3540620e+02   4.3732102e+02   3.4601632e+02   1.9525852e+02   3.3283320e+01  -8.9561286e+01  -1.3827878e+02  -9.9889441e+01   1.3091457e+01   1.6725242e+02   3.2380306e+02   4.4284782e+02   4.9187539e+02   4.5756754e+02   3.4580416e+02   1.8341653e+02   1.4336621e+01  -1.1630310e+02  -1.7039583e+02  -1.3259857e+02  -1.5779088e+01   1.4380985e+02   2.9950745e+02   4.0747521e+02   4.4134712e+02   3.9464118e+02   2.8350824e+02   1.4032828e+02   6.7387222e+00  -7.6708314e+01  -8.1379116e+01  -1.4435713e+00   1.4118643e+02   2.9984484e+02   4.2099306e+02   4.6153989e+02   4.1072529e+02   2.8339777e+02   1.2314152e+02  -2.4217642e+01  -1.1927477e+02  -1.4321260e+02  -9.2656477e+01   1.9644117e+01   1.6738485e+02   3.1650738e+02   4.3040839e+02   4.7674673e+02   4.3815271e+02   3.2332726e+02   1.6392810e+02   4.7236219e+00  -1.0485018e+02  -1.3284876e+02  -7.0187870e+01   6.3892988e+01   2.2738857e+02   3.7119222e+02   4.5047737e+02   4.4091636e+02   3.4749061e+02   2.0021940e+02   4.6191165e+01  -6.7775788e+01  -1.0824956e+02  -6.5261949e+01   4.5585077e+01   1.9117984e+02   3.3124218e+02   4.2423361e+02   4.4408592e+02   3.8204647e+02   2.5106159e+02   8.4991605e+01  -7.1971036e+01  -1.7262595e+02  -1.8697868e+02  -1.0780710e+02   4.6614965e+01   2.3385553e+02   3.9990109e+02   4.9563441e+02   4.9132674e+02   3.8483135e+02   2.0769782e+02   1.4471907e+01  -1.3258634e+02  -1.8881296e+02  -1.3863407e+02  -3.2198186e+00   1.6903083e+02   3.2442646e+02   4.2173466e+02   4.4304249e+02   3.8999429e+02   2.8273263e+02   1.4569822e+02   9.5196354e+00  -9.3061092e+01  -1.3242110e+02  -9.0886509e+01   2.7122735e+01   1.9097371e+02   3.4702686e+02   4.4091907e+02   4.3706742e+02   3.3604888e+02   1.7499281e+02   1.1145799e+01  -1.0225289e+02  -1.3128629e+02  -7.2017850e+01   5.3589842e+01   2.0892144e+02   3.5347579e+02   4.5262568e+02   4.8268969e+02   4.3854777e+02   3.2903282e+02   1.8413187e+02   4.2108183e+01  -5.6589239e+01  -8.2838800e+01  -3.0166473e+01   8.3522355e+01   2.2328222e+02   3.4497143e+02   4.1244082e+02   4.0723251e+02   3.3239136e+02   2.1141485e+02   7.9361153e+01  -2.5876215e+01  -7.5715168e+01  -5.7626701e+01   2.1657638e+01   1.3999650e+02   2.6322269e+02   3.5563820e+02   3.8700102e+02   3.4023715e+02   2.2005452e+02   5.4398401e+01  -1.1124096e+02  -2.2687728e+02  -2.5266932e+02  -1.7650481e+02  -2.0048689e+01   1.6733528e+02   3.2732220e+02   4.0992213e+02   3.9349814e+02   2.9004298e+02   1.3462562e+02  -2.6103563e+01  -1.4745410e+02  -2.0193221e+02  -1.7733805e+02  -8.1515957e+01   6.1894876e+01   2.1732951e+02   3.4448673e+02   4.0528863e+02   3.7884062e+02   2.7149562e+02   1.1384133e+02  -4.4514103e+01  -1.5268008e+02  -1.7804146e+02  -1.1498207e+02   1.3770658e+01   1.6687534e+02   2.9682403e+02   3.6908994e+02   3.6617072e+02   2.9403735e+02   1.7682353e+02   4.9544509e+01  -5.2350356e+01  -1.0329257e+02  -9.1936747e+01  -2.3259994e+01   8.4337427e+01   2.0466392e+02   3.0889099e+02   3.7171726e+02   3.7074209e+02   3.0006226e+02   1.7177978e+02   2.0162185e+01  -1.0996835e+02  -1.7095347e+02  -1.3743783e+02  -1.6285480e+01   1.5256003e+02   3.1005616e+02   4.0197224e+02   4.0097109e+02   3.0934449e+02   1.5914915e+02  -4.5925608e+00  -1.4094769e+02  -2.1617504e+02  -2.1206849e+02  -1.2824069e+02   1.9490116e+01   1.9244904e+02   3.4307602e+02   4.2306354e+02   4.0586235e+02   2.9551362e+02   1.2740369e+02  -4.3417295e+01  -1.6585251e+02  -2.0667314e+02  -1.6200829e+02  -4.8678091e+01   9.8581078e+01   2.4089740e+02   3.4321510e+02   3.8067020e+02   3.4481760e+02   2.4634353e+02   1.1278737e+02  -1.7177779e+01  -1.0278317e+02  -1.1573180e+02  -4.9938406e+01   7.6508505e+01   2.2414288e+02   3.4469258e+02   3.9905603e+02   3.6790579e+02   2.5782969e+02   1.0250596e+02  -5.2568689e+01  -1.6140497e+02  -1.9232805e+02  -1.3854769e+02  -1.1706381e+01   1.5163736e+02   3.0758961e+02   4.1180629e+02   4.3196504e+02   3.6022146e+02   2.1820526e+02   5.0977307e+01  -8.8598330e+01  -1.6200146e+02  -1.5292999e+02  -7.4481006e+01   4.4422576e+01   1.7246664e+02   2.8136643e+02   3.5195999e+02   3.6918423e+02   3.2476428e+02   2.2298415e+02   8.7914167e+01  -3.5632387e+01  -1.0190619e+02  -7.9067756e+01   2.7787940e+01   1.8259552e+02   3.3040697e+02   4.2295895e+02   4.3306263e+02   3.6320884e+02   2.3687771e+02   8.5867865e+01  -5.4013273e+01  -1.4891853e+02  -1.6983339e+02  -1.0590792e+02   3.1885835e+01   2.0597542e+02   3.5850320e+02   4.3947522e+02   4.2295086e+02   3.1704569e+02   1.6301684e+02   8.6985760e+00  -9.9524624e+01  -1.3773462e+02  -1.0173069e+02  -4.5654029e+00   1.2592818e+02   2.5588354e+02   3.4887384e+02   3.7649068e+02   3.2838465e+02   2.1315647e+02   6.3275365e+01  -7.7774429e+01  -1.6924406e+02  -1.8205424e+02  -1.1044011e+02   2.6918468e+01   1.9261265e+02   3.3740767e+02   4.1716601e+02   4.0503316e+02   3.0562862e+02   1.4943104e+02  -1.1481553e+01  -1.2724733e+02  -1.6217902e+02  -1.0911589e+02   1.2831095e+01   1.6752227e+02   3.1138301e+02   4.0487484e+02   4.2424957e+02   3.6291002e+02   2.3868213e+02   8.4061903e+01  -5.6469355e+01  -1.4525800e+02  -1.5871550e+02  -9.5450557e+01   2.4040864e+01   1.6559620e+02   2.8898506e+02   3.6280028e+02   3.6689605e+02   3.0005795e+02   1.7897700e+02   3.7547606e+01  -8.1552432e+01  -1.3767186e+02  -1.1165548e+02  -6.9227313e+00   1.4432822e+02   2.9527801e+02   4.0464236e+02   4.4129959e+02   3.9972095e+02   2.8845601e+02   1.3364718e+02  -2.8435284e+01  -1.5611155e+02  -2.1059237e+02  -1.6930613e+02  -3.7842433e+01   1.4605447e+02   3.2400250e+02   4.3297699e+02   4.3903857e+02   3.3941534e+02   1.7090675e+02  -1.3493814e+01  -1.5890101e+02  -2.2848884e+02  -2.0934542e+02  -1.1109989e+02   3.7290126e+01   1.9421826e+02   3.1333087e+02   3.6118477e+02   3.2298194e+02   2.1155592e+02   5.8457185e+01  -9.1008996e+01  -1.9818125e+02  -2.3126710e+02  -1.8283384e+02  -6.1087151e+01   1.0273696e+02   2.6154204e+02   3.6516065e+02   3.7505622e+02   2.8053949e+02   1.0639617e+02  -9.1272229e+01  -2.4622811e+02  -3.1107712e+02  -2.6730209e+02  -1.3616701e+02   3.7214073e+01   2.0337386e+02   3.2139015e+02   3.7175259e+02   3.5148833e+02   2.6763404e+02   1.4077907e+02  -5.9188153e-01  -1.2243682e+02  -1.9059687e+02  -1.7973872e+02  -8.7219564e+01   6.3938658e+01   2.2677908e+02   3.4700408e+02   3.8276625e+02   3.1922613e+02   1.7867920e+02   1.0924529e+01  -1.2948723e+02  -1.9499961e+02  -1.6908142e+02  -6.5328838e+01   8.1147715e+01   2.2589024e+02   3.2774998e+02   3.6166477e+02   3.2085667e+02   2.1549145e+02   6.8439680e+01  -8.5226354e+01  -2.1055488e+02  -2.7530475e+02  -2.6017422e+02  -1.6700921e+02  -1.8070541e+01   1.4255569e+02   2.6663193e+02   3.1186692e+02   2.5995040e+02   1.2521759e+02  -4.8517373e+01  -2.0344349e+02  -2.8849969e+02  -2.7968667e+02  -1.8566741e+02  -4.3752744e+01   9.4708950e+01   1.8660381e+02   2.0769985e+02   1.5598618e+02   4.9692740e+01  -8.4474259e+01  -2.1437386e+02  -3.0841671e+02  -3.4401489e+02  -3.0787464e+02  -2.0442297e+02  -5.8357116e+01   8.8701356e+01   1.9175507e+02   2.1855748e+02   1.6080960e+02   3.7051241e+01  -1.1530849e+02  -2.5139457e+02  -3.3570675e+02  -3.4669704e+02  -2.8374985e+02  -1.6455958e+02  -2.1808506e+01   1.0601778e+02   1.8243949e+02   1.8271495e+02   1.0440319e+02  -2.8834720e+01  -1.7782633e+02  -2.9965122e+02  -3.5915303e+02  -3.4156587e+02  -2.5346401e+02  -1.1989638e+02   2.4451649e+01   1.4249138e+02   2.0379514e+02   1.8897681e+02   1.0294354e+02  -3.0647008e+01  -1.6941470e+02  -2.6686636e+02  -2.8792786e+02  -2.2404720e+02  -9.3795341e+01   5.9226891e+01   1.8742940e+02   2.4803906e+02   2.2497586e+02   1.2365623e+02  -2.5954472e+01  -1.7977053e+02  -2.9235395e+02  -3.3062902e+02  -2.8587979e+02  -1.7115490e+02  -2.2823165e+01   1.1799717e+02   2.1064361e+02   2.3321264e+02   1.8440355e+02   8.3355037e+01  -4.2328025e+01  -1.5718468e+02  -2.2933983e+02  -2.3815575e+02  -1.7670538e+02  -5.6897596e+01   9.0069172e+01   2.2230890e+02   2.9681899e+02   2.9036034e+02   2.0247457e+02   6.1877263e+01  -9.0612654e+01  -2.1056872e+02  -2.6455236e+02  -2.4215712e+02  -1.5258381e+02  