  -5.1865804e+02  -4.5171471e+02  -3.9265533e+02  -3.4579406e+02  -3.1296211e+02  -2.9311027e+02  -2.8852896e+02  -3.0307826e+02  -3.3959991e+02  -3.9442460e+02  -4.5064858e+02  -4.9068535e+02  -4.9853717e+02  -4.6929267e+02  -4.1252536e+02  -3.4850750e+02  -2.9541243e+02  -2.6589833e+02  -2.6360070e+02  -2.8007938e+02  -3.0766537e+02  -3.3845497e+02  -3.6944701e+02  -3.9756918e+02  -4.2114530e+02  -4.3325970e+02  -4.2849922e+02  -4.0269073e+02  -3.5847386e+02  -3.0580472e+02  -2.5972201e+02  -2.3386882e+02  -2.3531756e+02  -2.6517892e+02  -3.1330361e+02  -3.6914615e+02  -4.2060395e+02  -4.5543127e+02  -4.7070037e+02  -4.6277077e+02  -4.3433475e+02  -3.9030821e+02  -3.3758801e+02  -2.8894481e+02  -2.5450832e+02  -2.4439169e+02  -2.6197040e+02  -3.0418856e+02  -3.6004044e+02  -4.2011948e+02  -4.7389346e+02  -5.1520801e+02  -5.3847134e+02  -5.4004489e+02  -5.1853944e+02  -4.7495699e+02  -4.1687148e+02  -3.5905241e+02  -3.2005616e+02  -3.1131641e+02  -3.3715433e+02  -3.8592641e+02  -4.4127728e+02  -4.8522118e+02  -5.0559395e+02  -4.9933444e+02  -4.7109212e+02  -4.2580430e+02  -3.6911249e+02  -3.0874191e+02  -2.5519522e+02  -2.2026299e+02  -2.1489384e+02  -2.4088946e+02  -2.9271048e+02  -3.5343621e+02  -4.0667064e+02  -4.3897986e+02  -4.4633147e+02  -4.3200639e+02  -4.0156916e+02  -3.6168987e+02  -3.1686059e+02  -2.7129128e+02  -2.3044808e+02  -2.0177379e+02  -1.9108871e+02  -1.9901959e+02  -2.2257815e+02  -2.5375736e+02  -2.8379096e+02  -3.0357585e+02  -3.0672215e+02  -2.8977783e+02  -2.5235683e+02  -1.9914089e+02  -1.4197317e+02  -9.4461970e+01  -6.9620938e+01  -7.4065584e+01  -1.0616407e+02  -1.5333238e+02  -2.0041334e+02  -2.3484144e+02  -2.4912359e+02  -2.4009614e+02  -2.0946691e+02  -1.6030696e+02  -9.9385411e+01  -3.2493021e+01   3.0879758e+01   7.9004512e+01   1.0598130e+02   1.1096185e+02   9.6267183e+01   7.1379353e+01   4.4033016e+01   2.2829113e+01   1.2895917e+01   1.9111126e+01   4.0273862e+01   7.4406100e+01   1.1511420e+02   1.5370806e+02   1.8260902e+02   1.9751401e+02   2.0083729e+02   1.9810966e+02   1.9824441e+02   2.0982833e+02   2.4181065e+02   3.0109578e+02   3.8856767e+02   5.0498036e+02   6.4296009e+02   7.8812184e+02   9.2306003e+02   1.0277814e+03   1.0870523e+03   1.0951503e+03   1.0606408e+03   9.9801179e+02   9.2824907e+02   8.6866386e+02   8.3144915e+02   8.1649648e+02   8.2194842e+02   8.3679826e+02   8.5661971e+02   8.7426047e+02   8.8312389e+02   8.7453420e+02   8.3966424e+02   7.6460126e+02   6.4531770e+02   4.8555376e+02   3.0185956e+02   1.2522914e+02  -1.1151676e+01  -8.1545257e+01  -7.5326297e+01  -3.5204163e+00   1.0668581e+02   2.2114006e+02   3.1014636e+02   3.5658489e+02   3.6026574e+02   3.3221935e+02   2.8985845e+02   2.4919213e+02   2.2147953e+02   2.1083240e+02   2.1928679e+02   2.4476066e+02   2.8412123e+02   3.3234300e+02   3.8149991e+02   4.2315392e+02   4.4361684e+02   4.3659217e+02   3.9984039e+02   3.4072673e+02   2.7275569e+02   2.1341910e+02   1.7683444e+02   1.6769519e+02   1.8498657e+02   2.2274958e+02   2.7094651e+02   3.1723794e+02   3.5328048e+02   3.6803912e+02   3.5560469e+02   3.1411414e+02   2.4956769e+02   1.7357873e+02   1.0132568e+02   4.8150788e+01   2.5328285e+01   3.3488101e+01   6.9039222e+01   1.1671796e+02   1.6214267e+02   1.9403612e+02   2.0263235e+02   1.8874575e+02   1.5505394e+02   1.0931967e+02   5.8508154e+01   7.9982261e+00  -3.4717332e+01  -6.7336587e+01  -8.3552748e+01  -8.2964503e+01  -6.6895345e+01  -4.1165885e+01  -1.7092872e+01  -3.1584950e+00  -9.8660705e+00  -3.7256234e+01  -8.5413239e+01  -1.4407193e+02  -2.0519487e+02  -2.5617433e+02  -2.8717674e+02  -2.9311435e+02  -2.7380973e+02  -2.3609485e+02  -1.9481895e+02  -1.6097802e+02  -1.4337132e+02  -1.4629330e+02  -1.6476225e+02  -1.9667036e+02  -2.3803812e+02  -2.8731664e+02  -3.3945198e+02  -3.8926183e+02  -4.2460643e+02  -4.3688327e+02  -4.2252322e+02  -3.8438541e+02  -3.3618928e+02  -2.9133221e+02  -2.5957521e+02  -2.4810632e+02  -2.5840686e+02  -2.8616834e+02  -3.2727635e+02  -3.7264214e+02  -4.1347667e+02  -4.3550407e+02  -4.3262481e+02  -4.0165905e+02  -3.5000357e+02  -2.9527336e+02  -2.5222266e+02  -2.3139954e+02  -2.3604666e+02  -2.5870860e+02  -2.9385255e+02  -3.3258733e+02  -3.7132760e+02  -4.0704230e+02  -4.3460026e+02  -4.4570428e+02  -4.3599520e+02  -4.0308842e+02  -3.5453879e+02  -3.0096257e+02  -2.5572852e+02  -2.2972299e+02  -2.2667561e+02  -2.4440836e+02  -2.7616700e+02  -3.1295655e+02  -3.4458227e+02  -3.6394357e+02  -3.6507392e+02  -3.4747668e+02  -3.1646235e+02  -2.7641312e+02  -2.3813731e+02  -2.0867612e+02  -1.9304701e+02  -1.9542208e+02  -2.1714488e+02  -2.5380576e+02  -3.0136400e+02  -3.4807483e+02  -3.8280294e+02  -3.9621882e+02  -3.8239812e+02  -3.4447519e+02  -2.8720643e+02  -2.2453795e+02  -1.6848778e+02  -1.2980245e+02  -1.1489641e+02  -1.2651950e+02  -1.5743906e+02  -1.9920094e+02  -2.4079819e+02  -2.7387899e+02  -2.9400881e+02  -3.0049170e+02  -2.9335372e+02  -2.7327723e+02  -2.4250499e+02  -2.0395986e+02  -1.6999790e+02  -1.5229214e+02  -1.6431585e+02  -2.0776089e+02  -2.7202127e+02  -3.3963731e+02  -3.8938342e+02  -4.0854140e+02  -3.9685821e+02  -3.6075627e+02  -3.1352741e+02  -2.6346302e+02  -2.1710686e+02  -1.7800813e+02  -1.5146267e+02  -1.4573311e+02  -1.6913485e+02  -2.2118606e+02  -2.8978848e+02  -3.5818160e+02  -4.0624421e+02  -4.2064352e+02  -4.0036609e+02  -3.5630097e+02  -3.0675358e+02  -2.6500238e+02  -2.4122003e+02  -2.3421745e+02  -2.4150756e+02  -2.5911265e+02  -2.8437539e+02  -3.1581170e+02  -3.5081445e+02  -3.8182980e+02  -3.9952387e+02  -3.9545998e+02  -3.6791399e+02  -3.2164487e+02  -2.7166785e+02  -2.3229635e+02  -2.1388096e+02  -2.2174102e+02  -2.5074283e+02  -2.9383885e+02  -3.4167171e+02  -3.8811514e+02  -4.2741888e+02  -4.5449309e+02  -4.6183691e+02  -4.4969381e+02  -4.1718426e+02  -3.7339009e+02  -3.2659220e+02  -2.9004758e+02  -2.7079057e+02  -2.7293645e+02  -2.9285392e+02  -3.2538199e+02  -3.6303734e+02  -3.9894174e+02  -4.2604164e+02  -4.4313008e+02  -4.4822471e+02  -4.4099947e+02  -4.2417594e+02  -3.9900972e+02  -3.6920694e+02  -3.4373166e+02  -3.3098901e+02  -3.4278761e+02  -3.7931279e+02  -4.3612194e+02  -4.9694696e+02  -5.4291290e+02  -5.6268844e+02  -5.4909813e+02  -5.0884360e+02  -4.5217355e+02  -3.8957297e+02  -3.3375444e+02  -2.9238695e+02  -2.7305415e+02  -2.8088344e+02  -3.1414068e+02  -3.6487424e+02  -4.1946365e+02  -4.6273106e+02  -4.8515284e+02  -4.8368770e+02  -4.6382442e+02  -4.3162388e+02  -3.9575215e+02  -3.6072239e+02  -3.3273701e+02  -3.1660808e+02  -3.1821636e+02  -3.3784947e+02  -3.7256632e+02  -4.1050810e+02  -4.4086759e+02  -4.5308305e+02  -4.4277267e+02  -4.1098175e+02  -3.6646479e+02  -3.1993570e+02  -2.7944573e+02  -2.5223968e+02  -2.4055604e+02  -2.4584950e+02  -2.6282294e+02  -2.9048011e+02  -3.2518742e+02  -3.6451464e+02  -4.0245427e+02  -4.3253852e+02  -4.4439537e+02  -4.3140951e+02  -3.9234931e+02  -3.3704723e+02  -2.8042714e+02  -2.4131407e+02  -2.3050691e+02  -2.4853623e+02  -2.8437645e+02  -3.2317166e+02  -3.5081096e+02  -3.6000223e+02  -3.5038447e+02  -3.2621001e+02  -2.9122356e+02  -2.5054177e+02  -2.0755663e+02  -1.6410204e+02  -1.2828493e+02  -1.0745704e+02  -1.0477401e+02  -1.2466104e+02  -1.5930560e+02  -1.9907464e+02  -2.2955054e+02  -2.4074532e+02  -2.2401269e+02  -1.8124396e+02  -1.2008883e+02  -5.2155176e+01   1.0636525e+01   5.8184644e+01   8.6359852e+01   9.2713084e+01   7.9369766e+01   5.2920618e+01   2.1339491e+01  -5.8285229e+00  -1.9606794e+01  -1.1582188e+01   1.6683372e+01   6.2134562e+01   1.1370899e+02   1.6271894e+02   1.9982116e+02   2.2013832e+02   2.2306164e+02   2.0933478e+02   1.8117612e+02   1.4840864e+02   1.1778411e+02   1.0186678e+02   1.0693816e+02   1.3638240e+02   1.8590665e+02   2.4776980e+02   3.1097278e+02   3.6815422e+02   4.1078150e+02   4.3716292e+02   4.4184591e+02   4.2610054e+02   3.9238671e+02   3.4992502e+02   3.0968565e+02   2.8423557e+02   2.7891315e+02   2.9572646e+02   3.2821063e+02   3.6826978e+02   4.0781216e+02   4.3881411e+02   4.5735530e+02   4.6117507e+02   4.5040647e+02   4.2532600e+02   3.9317480e+02   3.6331128e+02   3.4710360e+02   3.5002751e+02   3.7439163e+02   4.1497410e+02   4.6065563e+02   5.0191498e+02   5.2986364e+02   5.3937743e+02   5.2986085e+02   5.0525896e+02   4.6809520e+02   4.2352572e+02   3.7661423e+02   3.3120138e+02   2.9583010e+02   2.7717491e+02   2.7931342e+02   3.0299324e+02   3.4083045e+02   3.7917334e+02   4.0622083e+02   4.1493091e+02   4.0230291e+02   3.7675599e+02   3.4352577e+02   3.1121741e+02   2.8383824e+02   2.6374729e+02   2.5597654e+02   2.6529617e+02   2.9523189e+02   3.4003257e+02   3.9137678e+02   4.3244306e+02   4.4788880e+02   4.3430062e+02   3.9179414e+02   3.3362775e+02   2.7190898e+02   2.2067236e+02   1.8874426e+02   1.7885803e+02   1.9342854e+02   2.3025173e+02   2.8219380e+02   3.3971964e+02   3.8892754e+02   4.1664844e+02   4.1715508e+02   3.9011252e+02   3.4356888e+02   2.9099476e+02   2.4358762e+02   2.1421753e+02   2.0546695e+02   2.1719542e+02   2.4294251e+02   2.7629737e+02   3.0814942e+02   3.3054142e+02   3.3871282e+02   3.2987980e+02   3.0435662e+02   2.6576737e+02   2.1929804e+02   1.7114954e+02   1.3152918e+02   1.0862014e+02   1.0597447e+02   1.2568417e+02   1.5951476e+02   1.9997673e+02   2.3610488e+02   2.6156163e+02   2.7160905e+02   2.6552342e+02   2.4314715e+02   2.0346119e+02   1.5127385e+02   9.4313674e+01   4.4142815e+01   1.2344804e+01   7.3786517e+00   2.7344363e+01   6.0704364e+01   9.2796094e+01   1.0979793e+02   1.0671272e+02   8.3930547e+01   4.7026657e+01   1.6195911e+00  -4.7677599e+01  -9.3980137e+01  -1.2714664e+02  -1.3664002e+02  -1.1282100e+02  -5.5385320e+01   3.0156378e+01   1.2884668e+02   2.2820188e+02   3.1826660e+02   3.9635449e+02   4.6009391e+02   5.0754856e+02   5.3438470e+02   5.4026322e+02   5.3080423e+02   5.1756403e+02   5.1146138e+02   5.1999157e+02   5.3939439e+02   5.6273487e+02   5.7765631e+02   5.7842051e+02   5.6578855e+02   5.4233298e+02   5.1089814e+02   4.6811387e+02   4.1207552e+02   3.4248623e+02   2.5967480e+02   1.7092912e+02   8.1514113e+01  -7.4077401e+00  -9.7934732e+01  -1.9284824e+02  -2.8964646e+02  -3.8162389e+02  -4.5942108e+02  -5.1336752e+02  -5.3876680e+02  -5.3706693e+02  -5.1666469e+02  -4.8295345e+02  -4.4317032e+02  -3.9764050e+02  -3.4814846e+02  -2.9435465e+02  -2.4238410e+02  -1.9989305e+02  -1.7503251e+02  -1.7174899e+02  -1.8978816e+02  -2.2261274e+02  -2.6124600e+02  -2.9885068e+02  -3.2669317e+02  -3.4306070e+02  -3.4571103e+02  -3.3453926e+02  -3.1331933e+02  -2.8658173e+02  -2.6087960e+02  -2.4382947e+02  -2.3936200e+02  -2.5057186e+02  -2.7742338e+02  -3.1337973e+02  -3.5282033e+02  -3.8493623e+02  -4.0168788e+02  -3.9639430e+02  -3.6560233e+02  -3.1604163e+02  -2.5866999e+02  -2.0701286e+02  -1.7315505e+02  -1.6281881e+02  -1.7694429e+02  -2.0707883e+02  -2.4770625e+02  -2.8844209e+02  -3.2383401e+02  -3.4837478e+02  -3.5629159e+02  -3.4472521e+02  -3.1604725e+02  -2.7725352e+02  -2.3957295e+02  -2.1460318e+02  -2.0738581e+02  -2.1784615e+02  -2.3894008e+02  -2.6069407e+02  -2.7912684e+02  -2.9084627e+02  -2.9596672e+02  -2.9492069e+02  -2.8676196e+02  -2.6666908e+02  -2.3453374e+02  -1.9271973e+02  -1.5126143e+02  -1.2489411e+02  -1.2334704e+02  -1.5227398e+02  -2.0505720e+02  -2.6753151e+02  -3.2147404e+02  -3.5053887e+02  -3.4921894e+02  -3.2341170e+02  -2.8325165e+02  -2.4303285e+02  -2.1424252e+02  -1.9891972e+02  -1.9269922e+02  -1.8796737e+02  -1.8153040e+02  -1.7608121e+02  -1.7657521e+02  -1.9042577e+02  -2.1624996e+02  -2.4677629e+02  -2.6749087e+02  -2.6665795e+02  -2.4348930e+02  -2.0442506e+02  -1.6368552e+02  -1.3641401e+02  -1.3182218e+02  -1.5174893e+02  -1.8795435e+02  -2.3430920e+02  -2.7784326e+02  -3.1242879e+02  -3.2873382e+02  -3.2502137e+02  -3.0140220e+02  -2.6326743e+02  -2.1780561e+02  -1.7270744e+02  -1.3633784e+02  -1.1077070e+02  -9.9110329e+01  -1.0546034e+02  -1.2975905e+02  -1.7051119e+02  -2.2025061e+02  -2.6741023e+02  -2.9818831e+02  -3.0400316e+02  -2.8522045e+02  -2.4899833e+02  -2.0929081e+02  -1.7923384e+02  -1.6527527e+02  -1.7046454e+02  -1.8928232e+02  -2.1727102e+02  -2.4554958e+02  -2.6810133e+02  -2.7955205e+02  -2.7804718e+02  -2.6481380e+02  -2.4506092e+02  -2.1901611e+02  -1.8908486e+02  -1.5431114e+02  -1.1647059e+02  -8.3208740e+01  -6.6627580e+01  -7.6626240e+01  -1.1813873e+02  -1.8021579e+02  -2.4371602e+02  -2.8623868e+02  -2.9488026e+02  -2.7143597e+02  -2.2679025e+02  -1.7741826e+02  -1.3611420e+02  -1.0923099e+02  -9.8821187e+01  -1.0208802e+02  -1.1948644e+02  -1.4466848e+02  -1.7228154e+02  -1.9443901e+02  -2.0353532e+02  -1.9700099e+02  -1.7660683e+02  -1.5002594e+02  -1.2152518e+02  -9.5850415e+01  -7.5546987e+01  -6.0082478e+01  -5.6183583e+01  -6.6752556e+01  -9.5604438e+01  -1.3908619e+02  -1.9044786e+02  -2.3767103e+02  -2.6836025e+02  -2.7428976e+02  -2.5427187e+02  -2.1116184e+02  -1.5600136e+02  -1.0348970e+02  -6.5116643e+01  -4.9363778e+01  -5.7363352e+01  -8.4302370e+01  -1.2169533e+02  -1.6045823e+02  -1.9254151e+02  -2.1475781e+02  -2.2539946e+02  -2.2328838e+02  -2.0902765e+02  -1.8140041e+02  -1.4605082e+02  -1.1174010e+02  -8.9564923e+01  -8.9534516e+01  -1.1882415e+02  -1.7387439e+02  -2.4031995e+02  -2.9854938e+02  -3.3255733e+02  -3.3368616e+02  -3.0387641e+02  -2.5415181e+02  -1.9423062e+02  -1.3434517e+02  -7.5523069e+01  -1.9701236e+01   2.9921516e+01   6.6939097e+01   8.3975610e+01   8.0059629e+01   5.7276316e+01   2.8995472e+01   1.1063501e+01   1.4353695e+01   4.2988428e+01   9.4397847e+01   1.5619540e+02   2.1567099e+02   2.6156751e+02   2.8774476e+02   2.9236129e+02   2.7931145e+02   2.5781987e+02   2.3628218e+02   2.2260750e+02   2.1942850e+02   2.2957592e+02   2.5015596e+02   2.8143908e+02   3.2058991e+02   3.6408446e+02   4.0250962e+02   4.2935577e+02   4.3541329e+02   4.1946996e+02   3.8415717e+02   3.3997794e+02   2.9672704e+02   2.6564502e+02   2.5270461e+02   2.5839801e+02   2.8128320e+02   3.1538142e+02   3.5333195e+02   3.8904629e+02   4.1349572e+02   4.2424002e+02   4.1836286e+02   3.9661284e+02   3.6472379e+02   3.3306964e+02   3.1195541e+02   3.0992574e+02   3.3046813e+02   3.7140060e+02   4.2008230e+02   4.6140413e+02   4.8234355e+02   4.7674300e+02   4.4992077e+02   4.0975824e+02   3.6802164e+02   3.3384258e+02   3.1046528e+02   2.9952906e+02   2.9825561e+02   3.0693264e+02   3.2502056e+02   3.5007419e+02   3.7749435e+02   4.0394455e+02   4.2312360e+02   4.3251046e+02   4.3070379e+02   4.1807025e+02   3.9956698e+02   3.7878481e+02   3.5942911e+02   3.4457675e+02   3.3509520e+02   3.3157223e+02   3.3499027e+02   3.4321475e+02   3.5418556e+02   3.6554509e+02   3.7434016e+02   3.7441832e+02   3.6420647e+02   3.4169474e+02   3.0962468e+02   2.7605503e+02   2.5061667e+02   2.4283770e+02   2.5790553e+02   2.9613874e+02   3.4928747e+02   4.0460105e+02   4.4943428e+02   4.7104715e+02   4.6621062e+02   4.3927340e+02   3.9846242e+02   3.5435617e+02   3.1564993e+02   2.8648455e+02   2.6770421e+02   2.5942160e+02   2.6019990e+02   2.7002411e+02   2.8506019e+02   3.0202854e+02   3.1688290e+02   3.2442095e+02   3.1946896e+02   3.0037797e+02   2.7272198e+02   2.4226513e+02   2.1742696e+02   2.0458605e+02   2.0659901e+02   2.2186492e+02   2.4514660e+02   2.7119388e+02   2.9703802e+02   3.1967891e+02   3.3679947e+02   3.4213465e+02   3.3019672e+02   2.9819753e+02   2.5118309e+02   1.9956621e+02   1.5937339e+02   1.4158357e+02   1.4791532e+02   1.7032073e+02   1.9828958e+02   2.2089109e+02   2.3532061e+02   2.4261002e+02   2.4612696e+02   2.4553697e+02   2.3702198e+02   2.1771341e+02   1.8847103e+02   1.5528269e+02   1.2964280e+02   1.2127130e+02   1.3545927e+02   1.6818805e+02   2.0799823e+02   2.4341823e+02   2.6163813e+02   2.6005954e+02   2.3837756e+02   2.0595323e+02   1.6638846e+02   1.2739127e+02   8.9172569e+01   5.5720714e+01   3.1325477e+01   2.2671026e+01   3.2693350e+01   6.0232376e+01   9.4336701e+01   1.2193811e+02   1.2953363e+02   1.1251324e+02   7.4849632e+01   2.9007073e+01  -1.2903107e+01  -4.2528310e+01  -5.8928683e+01  -6.4113592e+01  -6.1123125e+01  -5.2418965e+01  -4.0502408e+01  -2.9848321e+01  -2.4394819e+01  -2.9926668e+01  -4.7713414e+01  -7.7707486e+01  -1.1448353e+02  -1.5293708e+02  -1.8659261e+02  -2.1223634e+02  -2.2451609e+02  -2.2115674e+02  -2.0252205e+02  -1.7139575e+02  -1.3302450e+02  -9.2626447e+01  -6.0685105e+01  -4.4395485e+01  -5.1596510e+01  -8.5417664e+01  -1.4471329e+02  -2.1918672e+02  -2.9195807e+02  -3.4823402e+02  -3.7571798e+02  -3.7345792e+02  -3.5195337e+02  -3.2450603e+02  -3.0396477e+02  -2.9514680e+02  -2.9928717e+02  -3.1286005e+02  -3.3103202e+02  -3.5386712e+02  -3.7823606e+02  -4.0122697e+02  -4.1774304e+02  -4.2193098e+02  -4.1112095e+02  -3.8706514e+02  -3.5641691e+02  -3.2955890e+02  -3.1403240e+02  -3.1290899e+02  -3.3045924e+02  -3.6340971e+02  -4.0895282e+02  -4.6050982e+02  -5.0708515e+02  -5.4192096e+02  -5.5709647e+02  -5.5272959e+02  -5.3352456e+02  -5.0555274e+02  -4.7631980e+02  -4.5032724e+02  -4.3244471e+02  -4.2544849e+02  -4.2904287e+02  -4.4457349e+02  -4.6848828e+02  -4.9543732e+02  -5.1776273e+02  -5.3004461e+02  -5.3035814e+02  -5.2196155e+02  -5.0926118e+02  -5.0206072e+02  -5.0125930e+02  -5.1128698e+02  -5.2762367e+02  -5.4473167e+02  -5.5564112e+02  -5.5428573e+02  -5.3452169e+02  -4.9461265e+02  -4.3186107e+02  -3.4803345e+02  -2.4327025e+02  -1.2528338e+02  -1.7975017e+00   1.1464401e+02   2.0925125e+02   2.7259926e+02   3.0293272e+02   3.0588612e+02   2.8846958e+02   2.6033116e+02   2.2846350e+02   1.9564253e+02   1.6794289e+02   1.5065458e+02   1.4683610e+02   1.5559711e+02   1.6804262e+02   1.7066461e+02   1.4986859e+02   9.4293247e+01   1.6274340e+00  -1.2425991e+02  -2.7390930e+02  -4.3045279e+02  -5.7413036e+02  -6.8280735e+02  -7.4015800e+02  -7.3725184e+02  -6.8340949e+02  -5.9635321e+02  -5.0183196e+02  -4.2101511e+02  -3.6600025e+02  -3.3675585e+02  -3.2872583e+02  -3.3617909e+02  -3.5422625e+02  -3.7628185e+02  -3.9865495e+02  -4.1592477e+02  -4.2280700e+02  -4.1632922e+02  -3.9828511e+02  -3.7309515e+02  -3.4733056e+02  -3.2622876e+02  -3.1552931e+02  -3.1788552e+02  -3.3297988e+02  -3.5531393e+02  -3.7749491e+02  -3.9173055e+02  -3.9219774e+02  -3.7997819e+02  -3.5634911e+02  -3.2635947e+02  -2.9277964e+02  -2.6065101e+02  -2.3875096e+02  -2.3330883e+02  -2.5325542e+02  -2.9617270e+02  -3.5395928e+02  -4.1107121e+02  -4.5107300e+02  -4.6316644e+02  -4.4836968e+02  -4.1709543e+02  -3.8200772e+02  -3.5119306e+02  -3.2883032e+02  -3.1465058e+02  -3.0652202e+02  -3.0646552e+02  -3.1330949e+02  -3.2905263e+02  -3.4984592e+02  -3.7037117e+02  -3.8330626e+02  -3.8455056e+02  -3.7393771e+02  -3.5127767e+02  -3.2171935e+02  -2.9357526e+02  -2.7386956e+02  -2.6893300e+02  -2.8135852e+02  -3.1055284e+02  -3.4898913e+02  -3.9011194e+02  -4.2370178e+02  -4.4340557e+02  -4.4410139e+02  -4.2680077e+02  -3.9289138e+02  -3.4766592e+02  -2.9723674e+02  -2.5206964e+02  -2.2045077e+02  -2.0821547e+02  -2.1600912e+02  -2.4023395e+02  -2.7268643e+02  -3.0373991e+02  -3.2580998e+02  -3.3378025e+02  -3.2807779e+02  -3.0816609e+02  -2.8135372e+02  -2.5196744e+02  -2.2407912e+02  -2.0507361e+02  -2.0037844e+02  -2.1264027e+02  -2.3953336e+02  -2.7524510e+02  -3.0753320e+02  -3.2412267e+02  -3.1713393e+02  -2.8522540e+02  -2.3519533e+02  -1.7990490e+02  -1.2853286e+02  -9.0318513e+01  -6.5061178e+01  -5.4699175e+01  -5.7273926e+01  -6.8502537e+01  -8.9050463e+01  -1.1344412e+02  -1.3842624e+02  -1.5746095e+02  -1.6606536e+02  -1.6168345e+02  -1.4191921e+02  -1.1108688e+02  -7.6184117e+01  -4.3519898e+01  -2.0302132e+01  -9.4964314e+00  -9.2058436e+00  -1.2704659e+01  -1.4114203e+01  -9.5661068e+00   1.4090137e+00   1.4579344e+01   2.8088976e+01   4.0122963e+01   5.4239582e+01   7.3300918e+01   9.6800765e+01   1.2029987e+02   1.3465339e+02   1.2775936e+02   9.9660514e+01   5.5971602e+01   1.0751590e+01  -1.8939322e+01  -2.3489281e+01  -2.8804650e+00   3.4713485e+01   7.9003845e+01   1.2031686e+02   1.5781615e+02   1.9295080e+02   2.2581557e+02   2.5313086e+02   2.6863540e+02   2.6681378e+02   2.5102763e+02   2.3024864e+02   2.2067821e+02   2.3056139e+02   2.6245814e+02   3.0813232e+02   3.5508129e+02   3.9358658e+02   4.1705022e+02   4.2631791e+02   4.2269170e+02   4.0940394e+02   3.8844110e+02   3.6475019e+02   3.4399611e+02   3.3813816e+02   3.5213460e+02   3.8905861e+02   4.4381945e+02   5.0455299e+02   5.5760010e+02   5.9586471e+02   6.1626082e+02   6.2193972e+02   6.2003670e+02   6.1378096e+02   6.0595177e+02   5.9480413e+02   5.8070209e+02   5.6475884e+02   5.5277892e+02   5.4972910e+02   5.6184732e+02   5.8835740e+02   6.2162447e+02   6.4948986e+02   6.6348535e+02   6.5965470e+02   6.4279891e+02   6.2408875e+02   6.1313009e+02   6.1468860e+02   6.2735686e+02   6.4446107e+02   6.6445287e+02   6.8692601e+02   7.1426135e+02   7.4676575e+02   7.8106161e+02   8.0542834e+02   8.1180624e+02   7.9424523e+02   7.5870134e+02   7.1622369e+02   6.8170723e+02   6.6347861e+02   6.6001833e+02   6.6909080e+02   6.8146384e+02   6.9527129e+02   7.0893099e+02   7.2341207e+02   7.3556989e+02   7.4325569e+02   7.4295918e+02   7.3184739e+02   7.1519735e+02   6.9735414e+02   6.8545061e+02   6.8317763e+02   6.8988166e+02   7.0419387e+02   7.2327708e+02   7.4463957e+02   7.6633902e+02   7.8031242e+02   7.8153878e+02   7.6377591e+02   7.2770528e+02   6.8144683e+02   6.3454312e+02   5.9862825e+02   5.8006556e+02   5.7884609e+02   5.9298304e+02   6.1753073e+02   6.4922176e+02   6.8158246e+02   7.0928510e+02   7.2444500e+02   7.2258556e+02   7.0506752e+02   6.7989774e+02   6.5696789e+02   6.4289818e+02   6.3774596e+02   6.3486640e+02   6.3117714e+02   6.2498711e+02   6.2142460e+02   6.2436550e+02   6.3565255e+02   6.4633074e+02   6.4562112e+02   6.2541169e+02   5.8715131e+02   5.4016363e+02   5.0052709e+02   4.7776304e+02   4.7661832e+02   4.9020906e+02   5.1071568e+02   5.3269952e+02   5.5097686e+02   5.6786620e+02   5.7854246e+02   5.8121009e+02   5.6884568e+02   5.3935475e+02   4.9811371e+02   4.5300095e+02   4.1313069e+02   3.8856555e+02   3.8128574e+02   3.8763477e+02   3.9935534e+02   4.0819837e+02   4.0596317e+02   3.9173223e+02   3.6702300e+02   3.3659923e+02   3.0576096e+02   2.7804882e+02   2.5742892e+02   2.4114008e+02   2.3146136e+02   2.2667556e+02   2.2646308e+02   2.3386608e+02   2.4483769e+02   2.5926315e+02   2.7123438e+02   2.7530383e+02   2.6744586e+02   2.4551648e+02   2.0911019e+02   1.6284256e+02   1.1421145e+02   7.3279568e+01   4.6459436e+01   3.4658506e+01   3.5962791e+01   4.4920256e+01   5.6355265e+01   6.8530639e+01   7.8400490e+01   8.7679857e+01   9.2499430e+01   9.0507708e+01   7.8404960e+01   5.8019666e+01   3.3138225e+01   1.2352964e+01   3.1880443e+00   8.7008990e+00   2.5650641e+01   4.8198770e+01   6.5988672e+01   7.3365923e+01   6.4468235e+01   4.0941792e+01   5.1205776e+00  -3.6377043e+01  -7.5553684e+01  -1.0424911e+02  -1.1640783e+02  -1.0912640e+02  -8.5256036e+01  -5.0431262e+01  -1.0519503e+01   2.4389124e+01   5.0234500e+01   6.3212692e+01   6.3714978e+01   5.3782585e+01   3.6986808e+01   1.5769539e+01  -5.6036032e+00  -2.5242614e+01  -4.0718571e+01  -5.0796809e+01  -5.4658922e+01  -5.1569171e+01  -4.0064495e+01  -2.5853136e+01  -1.2670929e+01  -1.0354453e+01  -2.4341185e+01  -5.5713178e+01  -1.0077970e+02  -1.4907478e+02  -1.8655311e+02  -2.0372215e+02  -1.9646081e+02  -1.6834172e+02  -1.3038168e+02  -9.3268322e+01  -7.2225658e+01  -7.0758387e+01  -9.2542966e+01  -1.3070012e+02  -1.7860264e+02  -2.2725533e+02  -2.7216205e+02  -3.1148947e+02  -3.4427588e+02  -3.7042494e+02  -3.8827428e+02  -3.9662281e+02  -3.9422017e+02  -3.8483931e+02  -3.7514354e+02  -3.7160271e+02  -3.8170049e+02  -4.0460811e+02  -4.3739592e+02  -4.7073313e+02  -4.9591808e+02  -5.0900665e+02  -5.0578477e+02  -4.9036405e+02  -4.6626247e+02  -4.3894561e+02  -4.1492247e+02  -3.9758894e+02  -3.8806903e+02  -3.9130563e+02  -4.0559987e+02  -4.3170239e+02  -4.6543987e+02  -5.0274572e+02  -5.3487593e+02  -5.5755222e+02  -5.6579066e+02  -5.5924265e+02  -5.4098125e+02  -5.1778533e+02  -4.9308221e+02  -4.7278155e+02  -4.5725397e+02  -4.5067431e+02  -4.5386637e+02  -4.6667530e+02  -4.8477691e+02  -5.0073747e+02  -5.0708341e+02  -4.9813943e+02  -4.7744627e+02  -4.4966312e+02  -4.2397552e+02  -4.0613965e+02  -3.9937537e+02  -4.0135562e+02  -4.0951962e+02  -4.2086699e+02  -4.3728572e+02  -4.5734920e+02  -4.7741502e+02  -4.8979128e+02  -4.8972009e+02  -4.7196615e+02  -4.3888357e+02  -3.9894559e+02  -3.6083749e+02  -3.3230671e+02  -3.1801508e+02  -3.1363625e+02  -3.1438710e+02  -3.1208627e+02  -3.0371874e+02  -2.9037569e+02  -2.7835890e+02  -2.7320568e+02  -2.7541022e+02  -2.8268671e+02  -2.8772209e+02  -2.8447980e+02  -2.7221569e+02  -2.5943022e+02  -2.5499483e+02  -2.6365171e+02  -2.8600235e+02  -3.1399198e+02  -3.3878596e+02  -3.4884670e+02  -3.3697384e+02  -3.0107634e+02  -2.4350286e+02  -1.6685167e+02  -7.6295042e+01   2.2441901e+01   1.2423202e+02   2.2358198e+02   3.1433305e+02   3.9287855e+02   4.5285357e+02   4.8836614e+02   5.0093679e+02   4.9537445e+02   4.8182896e+02   4.7221936e+02   4.7415399e+02   4.8735040e+02   5.0445391e+02   5.1406779e+02   5.1076380e+02   4.9384797e+02   4.6871358e+02   4.4170575e+02   4.1353167e+02   3.8235183e+02   3.3875874e+02   2.7587493e+02   1.8877611e+02   8.1373333e+01  -3.8213071e+01  -1.5686420e+02  -2.6042688e+02  -3.3765618e+02  -3.8036730e+02  -3.8898427e+02  -3.6958746e+02  -3.3645477e+02  -2.9998435e+02  -2.6880479e+02  -2.4383792e+02  -2.1808988e+02  -1.8700556e+02  -1.5031498e+02  -1.1241026e+02  -8.2392182e+01  -6.5994597e+01  -6.1619596e+01  -6.2689080e+01  -6.2447165e+01  -5.9247621e+01  -5.6253738e+01  -5.9388013e+01  -7.0315333e+01  -8.6237873e+01  -9.7323114e+01  -9.7669502e+01  -8.6817434e+01  -7.2915632e+01  -6.6730043e+01  -7.3718512e+01  -9.4381327e+01  -1.2403740e+02  -1.5408288e+02  -1.7968313e+02  -1.9875276e+02  -2.1201490e+02  -2.1791140e+02  -2.1216719e+02  -1.9488534e+02  -1.6614994e+02  -1.3422010e+02  -1.0448513e+02  -8.6402611e+01  -8.0642669e+01  -8.9617131e+01  -1.1048714e+02  -1.3964023e+02  -1.7452577e+02  -2.0766250e+02  -2.3059635e+02  -2.3560081e+02  -2.1897102e+02  -1.8885394e+02  -1.5666006e+02  -1.3719505e+02  -1.3571025e+02  -1.4808913e+02  -1.6135469e+02  -1.6361123e+02  -1.4943637e+02  -1.2363853e+02  -9.6212855e+01  -7.5283427e+01  -6.0820541e+01  -4.4970195e+01  -1.9916496e+01   1.8700649e+01   6.4692744e+01   1.0836402e+02   1.3846538e+02   1.5085800e+02   1.4674494e+02   1.3242239e+02   1.1260424e+02   9.0465457e+01   6.9608359e+01   5.0170708e+01   3.7262400e+01   3.4844205e+01   4.3065510e+01   6.2978577e+01   8.9465418e+01   1.1316982e+02   1.2922825e+02   1.3363997e+02   1.2819908e+02   1.2100877e+02   1.1969160e+02   1.3047739e+02   1.5237716e+02   1.8263269e+02   2.1256969e+02   2.3689312e+02   2.5636458e+02   2.7371593e+02   2.9060004e+02   3.0836935e+02   3.2150858e+02   3.2662237e+02   3.2197402e+02   3.1366934e+02   3.0765559e+02   3.1274703e+02   3.2988163e+02   3.5776523e+02   3.8997475e+02   4.2149489e+02   4.5156915e+02   4.8068093e+02   5.0845386e+02   5.3528127e+02   5.5855527e+02   5.7545518e+02   5.8535137e+02   5.9296457e+02   5.9947212e+02   6.0876333e+02   6.2200978e+02   6.3764551e+02   6.5675947e+02   6.7480986e+02   6.9149807e+02   7.0160318e+02   6.9858634e+02   6.8382459e+02   6.5841446e+02   6.3358211e+02   6.1782235e+02   6.1995154e+02   6.4027843e+02   6.7407434e+02   7.1045945e+02   7.4573401e+02   7.7508626e+02   8.0253014e+02   8.2687452e+02   8.4652182e+02   8.5592958e+02   8.5064276e+02   8.3189657e+02   8.0488177e+02   7.7983580e+02   7.6315814e+02   7.5774057e+02   7.5965285e+02   7.6324488e+02   7.6463343e+02   7.6445724e+02   7.6572551e+02   7.6956560e+02   7.7670003e+02   7.8154331e+02   7.8189614e+02   7.7730358e+02   7.7122081e+02   7.7117343e+02   7.8010226e+02   7.9604327e+02   8.1522074e+02   8.3154079e+02   8.4238546e+02   8.4854020e+02   8.5005777e+02   8.4387395e+02   8.2904299e+02   8.0354154e+02   7.6868225e+02   7.3326126e+02   7.0561963e+02   6.9181628e+02   6.9108421e+02   6.9767910e+02   7.0414434e+02   7.0692594e+02   7.0719669e+02   7.0670518e+02   7.0846353e+02   7.0912469e+02   7.0497232e+02   6.9153187e+02   6.7089692e+02   6.4892731e+02   6.3550416e+02   6.3401325e+02   6.4517740e+02   6.5727972e+02   6.6173281e+02   6.4987002e+02   6.2178522e+02   5.8503418e+02   5.4803961e+02   5.1410509e+02   4.8302808e+02   4.4738822e+02   4.0665916e+02   3.6032935e+02   3.2021759e+02   2.9512627e+02   2.9190445e+02   3.0790426e+02   3.3473171e+02   3.5713000e+02   3.6580816e+02   3.5504082e+02   3.2691747e+02   2.8719657e+02   2.4580666e+02   2.0811227e+02   1.7911307e+02   1.5875587e+02   1.4651242e+02   1.3531438e+02   1.2085654e+02   9.8195851e+01   6.8507821e+01   3.2826141e+01  -5.4050987e+00  -4.2096166e+01  -7.5652647e+01  -1.0446814e+02  -1.2966592e+02  -1.4893007e+02  -1.6024560e+02  -1.6338454e+02  -1.5802872e+02  -1.4549778e+02  -1.3113558e+02  -1.1848146e+02  -1.1439932e+02  -1.2534600e+02  -1.5093037e+02  -1.8685220e+02  -2.2622799e+02  -2.6222879e+02  -2.8988930e+02  -3.0891317e+02  -3.2230271e+02  -3.3168239e+02  -3.3825439e+02  -3.4240589e+02  -3.4206406e+02  -3.4194981e+02  -3.4490081e+02  -3.5441859e+02  -3.6854139e+02  -3.8307175e+02  -3.9210691e+02  -3.9075162e+02  -3.8085154e+02  -3.6457911e+02  -3.4873577e+02  -3.3269585e+02  -3.1799658e+02  -3.0565642e+02  -2.9936453e+02  -3.0471392e+02  -3.2264320e+02  -3.5320778e+02  -3.8773181e+02  -4.1931108e+02  -4.4356190e+02  -4.6045968e+02  -4.7209218e+02  -4.8217248e+02  -4.9020865e+02  -4.9630238e+02  -4.9762751e+02  -4.9470816e+02  -4.8965632e+02  -4.8453543e+02  -4.7998560e+02  -4.7718629e+02  -4.7515631e+02  -4.7131600e+02  -4.6717880e+02  -4.6301082e+02  -4.5930615e+02  -4.5696700e+02  -4.5714484e+02  -4.6277510e+02  -4.7290742e+02  -4.8798070e+02  -5.0720550e+02  -5.2819526e+02  -5.5093402e+02  -5.7509559e+02  -6.0065265e+02  -6.2365057e+02  -6.4298446e+02  -6.5201551e+02  -6.4889722e+02  -6.3254258e+02  -6.0824056e+02  -5.8300341e+02  -5.6178358e+02  -5.5072477e+02  -5.4960219e+02  -5.5556496e+02  -5.6522655e+02  -5.7407373e+02  -5.8209628e+02  -5.9249318e+02  -6.0629711e+02  -6.2378035e+02  -6.4055501e+02  -6.5135117e+02  -6.5252842e+02  -6.4743622e+02  -6.4177248e+02  -6.4609024e+02  -6.6456853e+02  -6.9310558e+02  -7.2071917e+02  -7.3717059e+02  -7.3467701e+02  -7.1655612e+02  -6.8765925e+02  -6.5549419e+02  -6.2700464e+02  -6.0404725e+02  -5.8567261e+02  -5.7135837e+02  -5.6035395e+02  -5.5527186e+02  -5.5400849e+02  -5.6000734e+02  -5.7280397e+02  -5.8973477e+02  -6.0865732e+02  -6.2253070e+02  -6.2773730e+02  -6.2308518e+02  -6.1050109e+02  -5.9649148e+02  -5.8449858e+02  -5.7829968e+02  -5.7358580e+02  -5.6981393e+02  -5.6336416e+02  -5.5696400e+02  -5.5228102e+02  -5.4754695e+02  -5.4106832e+02  -5.2750290e+02  -5.0483302e+02  -4.7403345e+02  -4.4149990e+02  -4.1635776e+02  -4.0379868e+02  -4.0458899e+02  -4.1785758e+02  -4.3921256e+02  -4.6716584e+02  -4.9777915e+02  -5.2939859e+02  -5.5432581e+02  -5.6728906e+02  -5.6561988e+02  -5.5110504e+02  -5.2755248e+02  -5.0616998e+02  -4.9289313e+02  -4.8780794e+02  -4.8878926e+02  -4.9142639e+02  -4.9224315e+02  -4.9015379e+02  -4.8504472e+02  -4.7934540e+02  -4.7045537e+02  -4.5992850e+02  -4.4837063e+02  -4.3907247e+02  -4.3545961e+02  -4.3748435e+02  -4.4209792e+02  -4.4492610e+02  -4.4722702e+02  -4.5014885e+02  -4.5723945e+02  -4.7110430e+02  -4.8507532e+02  -4.9275027e+02  -4.8628763e+02  -4.6239432e+02  -4.2700791e+02  -3.9173927e+02  -3.6319196e+02  -3.4629967e+02  -3.3781712e+02  -3.3206575e+02  -3.2697970e+02  -3.2243254e+02  -3.1876590e+02  -3.1939925e+02  -3.2438501e+02  -3.2978867e+02  -3.3581461e+02  -3.3965621e+02  -3.4111190e+02  -3.3906044e+02  -3.3592044e+02  -3.3322168e+02  -3.3339070e+02  -3.3880392e+02  -3.4810150e+02  -3.5469566e+02  -3.5436229e+02  -3.4278431e+02  -3.1992392e+02  -2.9013646e+02  -2.5899387e+02  -2.3184830e+02  -2.1122270e+02  -1.9715298e+02  -1.8961754e+02  -1.9117180e+02  -2.0286204e+02  -2.2543444e+02  -2.5279243e+02  -2.7860481e+02  -2.9493592e+02  -2.9776760e+02  -2.9030768e+02  -2.7502782e+02  -2.5943343e+02  -2.4662562e+02  -2.3775983e+02  -2.3252566e+02  -2.2876524e+02  -2.2731398e+02  -2.2909618e+02  -2.3244934e+02  -2.3459933e+02  -2.3017359e+02  -2.1763106e+02  -1.9950536e+02  -1.7939919e+02  -1.6272406e+02  -1.5123593e+02  -1.4346458e+02  -1.3115926e+02  -1.0787212e+02  -6.9772414e+01  -1.8736521e+01   4.1300130e+01   1.0679840e+02   1.7798851e+02   2.5628865e+02   3.4088671e+02   4.2756839e+02   5.0582193e+02   5.6719173e+02   6.0480095e+02   6.2192976e+02   6.2552592e+02   6.2454291e+02   6.2203997e+02   6.2103280e+02   6.1713767e+02   6.0909788e+02   5.9730470e+02   5.8542504e+02   5.7522174e+02   5.6460790e+02   5.4492232e+02   5.0636263e+02   4.3847542e+02   3.3458928e+02   2.0008753e+02   4.7452201e+01  -1.0493908e+02  -2.3322699e+02  -3.2261205e+02  -3.6391087e+02  -3.5700971e+02  -3.1211814e+02  -2.4176713e+02  -1.6254954e+02  -8.4654774e+01  -1.6292755e+01   3.7875714e+01   7.9187361e+01   1.0921560e+02   1.2775809e+02   1.3658389e+02   1.3600191e+02   1.2734876e+02   1.1450891e+02   1.0656945e+02   1.0767949e+02   1.2013758e+02   1.4267798e+02   1.6488314e+02   1.7862181e+02   1.7940734e+02   1.6959003e+02   1.5933564e+02   1.5639124e+02   1.6568913e+02   1.8587676e+02   2.1087918e+02   2.3859562e+02   2.6880310e+02   3.0229651e+02   3.3824321e+02   3.7168305e+02   3.9507328e+02   4.0176617e+02   3.9332107e+02   3.7558657e+02   3.5953660e+02   3.5189536e+02   3.5162973e+02   3.5541405e+02   3.5617579e+02   3.5281188e+02   3.4812671e+02   3.5099489e+02   3.6370362e+02   3.8339230e+02   4.0348822e+02   4.1504079e+02   4.1388268e+02   4.0358622e+02   3.9123161e+02   3.8804581e+02   3.9800085e+02   4.2246939e+02   4.5802223e+02   4.9842058e+02   5.3481139e+02   5.6008806e+02   5.7134028e+02   5.6529497e+02   5.4765056e+02   5.2422725e+02   5.0189519e+02   4.8528884e+02   4.7436179e+02   4.6787018e+02   4.6388840e+02   4.6545421e+02   4.7741304e+02   5.0148963e+02   5.3756811e+02   5.7611801e+02   6.0767597e+02   6.2628246e+02   6.3178585e+02   6.2895698e+02   6.2540005e+02   6.2629014e+02   6.3000498e+02   6.3474020e+02   6.3819808e+02   6.3742116e+02   6.3480780e+02   6.3330330e+02   6.3372006e+02   6.3310957e+02   6.2909657e+02   6.2009302e+02   6.0733577e+02   5.9373110e+02   5.8553226e+02   5.8291417e+02   5.8853398e+02   5.9917063e+02   6.1252208e+02   6.2720635e+02   6.4197002e+02   6.5906510e+02   6.7771937e+02   6.9560709e+02   7.1122693e+02   7.2111441e+02   7.2285164e+02   7.1387974e+02   6.9615991e+02   6.6975967e+02   6.3945382e+02   6.1142320e+02   5.9311052e+02   5.8525534e+02   5.8809072e+02   5.9664713e+02   6.0108696e+02   5.9598763e+02   5.8050386e+02   5.5936937e+02   5.3973541e+02   5.2688250e+02   5.2487142e+02   5.2921518e+02   5.3665079e+02   5.4106869e+02   5.4162429e+02   5.4001584e+02   5.3687667e+02   5.3120376e+02   5.2073511e+02   5.0219837e+02   4.7537860e+02   4.4399055e+02   4.1238070e+02   3.8711956e+02   3.6556545e+02   3.4548652e+02   3.2081288e+02   2.9256250e+02   2.6394647e+02   2.4062229e+02   2.2803311e+02   2.2575496e+02   2.2877613e+02   2.2864970e+02   2.2049219e+02   2.0683606e+02   1.9237818e+02   1.8368961e+02   1.8096040e+02   1.8084472e+02   1.7744797e+02   1.6746453e+02   1.5443951e+02   1.4109845e+02   1.3067170e+02   1.2113926e+02   1.0733719e+02   8.1895434e+01   4.6012614e+01   6.1077470e+00  -2.6583904e+01  -4.3391594e+01  -4.4491179e+01  -3.5033282e+01  -2.3094168e+01  -1.6461936e+01  -1.3303785e+01  -1.0783572e+01  -3.7063275e+00   7.7411548e+00   2.0107626e+01   2.6637915e+01   2.4096329e+01   1.3501015e+01  -3.1650367e+00  -1.9198097e+01  -3.2318006e+01  -4.0682055e+01  -4.7769898e+01  -5.4170970e+01  -6.1329626e+01  -7.3313029e+01  -8.8662195e+01  -1.0836859e+02  -1.2898938e+02  -1.4688358e+02  -1.5952240e+02  -1.6280921e+02  -1.5834017e+02  -1.4654717e+02  -1.3368841e+02  -1.2268310e+02  -1.1581915e+02  -1.1638884e+02  -1.2232256e+02  -1.3289075e+02  -1.4452952e+02  -1.5582018e+02  -1.6562065e+02  -1.7531654e+02  -1.9013634e+02  -2.1046431e+02  -2.3708845e+02  -2.6633739e+02  -2.9108639e+02  -3.0864225e+02  -3.1654328e+02  -3.2032843e+02  -3.2433408e+02  -3.3456942e+02  -3.4770044e+02  -3.5914684e+02  -3.6226791e+02  -3.5559195e+02  -3.4003215e+02  -3.2303371e+02  -3.0961056e+02  -3.0225493e+02  -3.0173031e+02  -3.0878507e+02  -3.2184237e+02  -3.3872919e+02  -3.5950052e+02  -3.8139607e+02  -4.0094106e+02  -4.1917264e+02  -4.3594917e+02  -4.5428312e+02  -4.7363448e+02  -4.9211169e+02  -5.0454619e+02  -5.0843421e+02  -5.0476616e+02  -4.9678584e+02  -4.9073439e+02  -4.8763364e+02  -4.8715182e+02  -4.8457395e+02  -4.7887401e+02  -4.7086245e+02  -4.6236610e+02  -4.5739068e+02  -4.5722144e+02  -4.6043302e+02  -4.6680156e+02  -4.7513635e+02  -4.8606822e+02  -4.9884384e+02  -5.1217586e+02  -5.2718858e+02  -5.3947866e+02  -5.5028708e+02  -5.5975341e+02  -5.6920617e+02  -5.7843402e+02  -5.8688574e+02  -5.9075999e+02  -5.8696884e+02  -5.7398264e+02  -5.5058787e+02  -5.2260558e+02  -4.9362367e+02  -4.7079238e+02  -4.6071611e+02  -4.6645435e+02  -4.8362075e+02  -5.0755028e+02  -5.2749089e+02  -5.3777496e+02  -5.3693243e+02  -5.2672399e+02  -5.1509298e+02  -5.0905439e+02  -5.1055500e+02  -5.1934542e+02  -5.2890204e+02  -5.3742566e+02  -5.4192434e+02  -5.4536902e+02  -5.4489118e+02  -5.3898156e+02  -5.2364530e+02  -4.9747680e+02  -4.6163296e+02  -4.2570357e+02  -3.9649887e+02  -3.7979147e+02  -3.7705922e+02  -3.8127542e+02  -3.8678400e+02  -3.9027941e+02  -3.9189098e+02  -3.9235134e+02  -3.9321323e+02  -3.9307145e+02  -3.9174860e+02  -3.9041335e+02  -3.9361621e+02  -4.0524650e+02  -4.2343078e+02  -4.4140495e+02  -4.5239519e+02  -4.4753839e+02  -4.2786160e+02  -3.9932294e+02  -3.7090148e+02  -3.4970947e+02  -3.3509471e+02  -3.2470106e+02  -3.1646431e+02  -3.0653484e+02  -2.9913538e+02  -2.9537744e+02  -2.9607101e+02  -2.9956539e+02  -3.0165442e+02  -3.0256773e+02  -3.0205309e+02  -3.0253755e+02  -3.0633984e+02  -3.1189662e+02  -3.1496387e+02  -3.1275981e+02  -3.0202800e+02  -2.8501585e+02  -2.6437917e+02  -2.4603765e+02  -2.3201299e+02  -2.2128218e+02  -2.1167205e+02  -2.0080955e+02  -1.8612818e+02  -1.6891812e+02  -1.5339776e+02  -1.4378117e+02  -1.4331827e+02  -1.4829306e+02  -1.5397719e+02  -1.5654854e+02  -1.5399466e+02  -1.5002690e+02  -1.5203050e+02  -1.6206936e+02  -1.7995383e+02  -1.9836554e+02  -2.0702176e+02  -2.0185161e+02  -1.8415306e+02  -1.6470226e+02  -1.5279482e+02  -1.5421142e+02  -1.6711368e+02  -1.8288896e+02  -1.9397108e+02  -1.9466713e+02  -1.8901791e+02  -1.8371077e+02  -1.8605344e+02  -1.9600432e+02  -2.1424521e+02  -2.3427517e+02  -2.5350355e+02  -2.7332318e+02  -2.9315220e+02  -3.1444331e+02  -3.3466716e+02  -3.5328472e+02  -3.6772463e+02  -3.8038154e+02  -3.9164390e+02  -4.0495271e+02  -4.1888292e+02  -4.3223218e+02  -4.4109741e+02  -4.4291998e+02  -4.3748507e+02  -4.2886872e+02  -4.1933608e+02  -4.1120423e+02  -4.0568967e+02  -4.0276430e+02  -4.0104223e+02  -3.9971464e+02  -3.9954123e+02  -4.0089672e+02  -4.0286229e+02  -4.0634468e+02  -4.0720258e+02  -4.0636141e+02  -4.0190139e+02  -3.9311143e+02  -3.8250845e+02  -3.6982844e+02  -3.5400026e+02  -3.3411415e+02  -3.1039479e+02  -2.8318515e+02  -2.5294123e+02  -2.2123320e+02  -1.8974476e+02  -1.5826126e+02  -1.2863942e+02  -1.0275489e+02  -8.3430180e+01  -7.2350258e+01  -6.7978256e+01  -6.7485164e+01  -6.3706787e+01  -5.5137796e+01  -4.1966394e+01  -2.9147257e+01  -2.3503523e+01  -2.6844270e+01  -3.7081859e+01  -4.6333784e+01  -4.6997226e+01  -3.4789142e+01  -1.3750662e+01   1.1780414e+01   3.5220790e+01   5.3806987e+01   7.0664980e+01   8.8876447e+01   1.0853707e+02   1.2880539e+02   1.4694292e+02   1.6134811e+02   1.7558594e+02   1.9241405e+02   2.1180442e+02   2.2895734e+02   2.3730355e+02   2.2948986e+02   2.0834553e+02   1.7982830e+02   1.5795338e+02   1.4971078e+02   1.6198004e+02   1.9245170e+02   2.3856509e+02   3.0146957e+02   3.8101320e+02   4.7975975e+02   5.9503040e+02   7.1896450e+02   8.3959199e+02   9.4190935e+02   1.0179529e+03   1.0668639e+03   1.0949424e+03   1.1106892e+03   1.1218350e+03   1.1313569e+03   1.1354828e+03   1.1296825e+03   1.1116425e+03   1.0832273e+03   1.0524224e+03   1.0262654e+03   1.0087648e+03   9.9781680e+02   9.8412642e+02   9.5714252e+02   9.0901515e+02   8.3858080e+02   7.4637830e+02   6.4269394e+02   5.3362964e+02   4.2818597e+02   3.3534940e+02   2.6417378e+02   2.2284763e+02   2.1774247e+02   2.4744056e+02   3.0474435e+02   3.7467175e+02   4.4044260e+02   4.8846056e+02   5.1429299e+02   5.2064858e+02   5.1635042e+02   5.1330087e+02   5.1643464e+02   5.2665894e+02   5.3978213e+02   5.4643668e+02   5.4600558e+02   5.3756303e+02   5.2984151e+02   5.3023350e+02   5.4383281e+02   5.6751367e+02   5.9603988e+02   6.1919015e+02   6.3088312e+02   6.2928460e+02   6.1688256e+02   6.0152059e+02   5.8938772e+02   5.7996947e+02   5.7397162e+02   5.6723085e+02   5.5762792e+02   5.4401570e+02   5.2916981e+02   5.1676307e+02   5.0935921e+02   5.0641690e+02   5.0729355e+02   5.0823982e+02   5.0638000e+02   5.0067921e+02   4.9190446e+02   4.8559130e+02   4.8202932e+02   4.8527922e+02   4.9322770e+02   5.0268070e+02   5.1148587e+02   5.1766824e+02   5.1955817e+02   5.1588969e+02   5.0485071e+02   4.8507412e+02   4.5456864e+02   4.1859888e+02   3.8253296e+02   3.5068199e+02   3.2715659e+02   3.0776186e+02   2.9094444e+02   2.7479475e+02   2.5909710e+02   2.4841184e+02   2.4316881e+02   2.4275161e+02   2.4255639e+02   2.3801725e+02   2.3060010e+02   2.2277483e+02   2.1998300e+02   2.2361888e+02   2.2903893e+02   2.3160775e+02   2.2477748e+02   2.1018905e+02   1.8877400e+02   1.6483363e+02   1.4007265e+02   1.1357239e+02   8.2699198e+01   4.9956805e+01   1.9803232e+01  -3.5387318e+00  -1.5245197e+01  -1.8000708e+01  -1.4033840e+01  -8.0732132e+00  -5.2322471e+00  -5.8442169e+00  -1.0278017e+01  -1.4766988e+01  -1.7279636e+01  -1.7450647e+01  -1.6577611e+01  -1.6674727e+01  -2.2563396e+01  -3.5972796e+01  -5.6623765e+01  -8.1275068e+01  -1.0672242e+02  -1.2975358e+02  -1.5107554e+02  -1.7023819e+02  -1.8958176e+02  -2.1123095e+02  -2.3314872e+02  -2.5424915e+02  -2.6855315e+02  -2.7536005e+02  -2.7140009e+02  -2.5893487e+02  -2.4277974e+02  -2.2923697e+02  -2.1994524e+02  -2.1466816e+02  -2.1205676e+02  -2.0542711e+02  -1.9659210e+02  -1.8977552e+02  -1.9262154e+02  -2.1029372e+02  -2.4064079e+02  -2.7539459e+02  -3.0436053e+02  -3.1956466e+02  -3.2333333e+02  -3.2229645e+02  -3.2432417e+02  -3.3542077e+02  -3.5360897e+02  -3.7183861e+02  -3.8394679e+02  -3.8568218e+02  -3.7779027e+02  -3.6513887e+02  -3.5085157e+02  -3.3941257e+02  -3.2970943e+02  -3.2199322e+02  -3.1675248e+02  -3.1251704e+02  -3.1062477e+02  -3.1099449e+02  -3.1495017e+02  -3.2513351e+02  -3.4152573e+02  -3.6357899e+02  -3.9243568e+02  -4.2419691e+02  -4.5319171e+02  -4.7319830e+02  -4.7957926e+02  -4.7231001e+02  -4.5390166e+02  -4.3524095e+02  -4.2138516e+02  -4.1735833e+02  -4.1999126e+02  -4.2283657e+02  -4.2117094e+02  -4.1107552e+02  -3.9856712e+02  -3.8474051e+02  -3.7388000e+02  -3.6650543e+02  -3.6333412e+02  -3.6416050e+02  -3.7067672e+02  -3.8527336e+02  -4.0686729e+02  -4.3180130e+02  -4.5384646e+02  -4.7131797e+02  -4.8229103e+02  -4.9088128e+02  -4.9653888e+02  -4.9930086e+02  -4.9595206e+02  -4.8306296e+02  -4.5989556e+02  -4.2819552e+02  -3.9491016e+02  -3.6988685e+02  -3.5660860e+02  -3.5501523e+02  -3.5943904e+02  -3.6265949e+02  -3.5805595e+02  -3.4681809e+02  -3.3316187e+02  -3.2750111e+02  -3.3453621e+02  -3.5624304e+02  -3.8476915e+02  -4.1026775e+02  -4.2371525e+02  -4.2276334e+02  -4.1466972e+02  -4.0533379e+02  -4.0243993e+02  -4.0668442e+02  -4.1304166e+02  -4.1401275e+02  -4.0580003e+02  -3.8536404e+02  -3.5734250e+02  -3.2583840e+02  -2.9711280e+02  -2.7623755e+02  -2.6377328e+02  -2.6353389e+02  -2.7348162e+02  -2.8977111e+02  -3.0993113e+02  -3.2914424e+02  -3.4156727e+02  -3.4862760e+02  -3.5023766e+02  -3.4989009e+02  -3.5162207e+02  -3.5486691e+02  -3.6223551e+02  -3.7128413e+02  -3.7732717e+02  -3.7834116e+02  -3.7198356e+02  -3.5872221e+02  -3.4204342e+02  -3.2568696e+02  -3.1084721e+02  -2.9728584e+02  -2.8131900e+02  -2.6367015e+02  -2.4620925e+02  -2.3462674e+02  -2.3510702e+02  -2.5007003e+02  -2.7403785e+02  -3.0265927e+02  -3.2789340e+02  -3.4732120e+02  -3.6152682e+02  -3.7047639e+02  -3.7682217e+02  -3.7807515e+02  -3.7361683e+02  -3.6455385e+02  -3.5145114e+02  -3.4200376e+02  -3.3671803e+02  -3.3566842e+02  -3.3537782e+02  -3.2983928e+02  -3.1966560e+02  -3.0532300e+02  -2.9138753e+02  -2.7875719e+02  -2.6876444e+02  -2.5915688e+02  -2.4994606e+02  -2.4415539e+02  -2.4552473e+02  -2.5824116e+02  -2.8076314e+02  -3.0978716e+02  -3.3537572e+02  -3.5023141e+02  -3.5206820e+02  -3.4400874e+02  -3.3392841e+02  -3.2567506e+02  -3.2111788e+02  -3.1701291e+02  -3.0570968e+02  -2.8475626e+02  -2.5648004e+02  -2.2962613e+02  -2.1212201e+02  -2.0700994e+02  -2.1355280e+02  -2.2548212e+02  -2.3432809e+02  -2.3675554e+02  -2.3183080e+02  -2.2516249e+02  -2.1988918e+02  -2.1952342e+02  -2.2369463e+02  -2.2985797e+02  -2.3604386e+02  -2.4071472e+02  -2.4477091e+02  -2.4771343e+02  -2.4793435e+02  -2.4307447e+02  -2.3136972e+02  -2.1090673e+02  -1.8372452e+02  -1.5473061e+02  -1.2943853e+02  -1.1357235e+02  -1.0561279e+02  -1.0337430e+02  -1.0169656e+02  -1.0131244e+02  -1.0191789e+02  -1.0942857e+02  -1.2336929e+02  -1.4231667e+02  -1.5830481e+02  -1.6711439e+02  -1.6639129e+02  -1.5957895e+02  -1.5268964e+02  -1.4797344e+02  -1.4456590e+02  -1.3819715e+02  -1.2503001e+02  -1.0466319e+02  -8.1296867e+01  -6.1019166e+01  -4.8143047e+01  -4.0509718e+01  -3.1680689e+01  -1.4964194e+01   1.2741528e+01   4.8263989e+01   8.4570061e+01   1.1019153e+02   1.1857099e+02   1.0724982e+02   8.2851872e+01   5.5858033e+01   3.8210875e+01   3.6824673e+01   5.3096670e+01   7.7515730e+01   1.0344500e+02   1.2411852e+02   1.4084789e+02   1.6039124e+02   1.8440406e+02   2.1387644e+02   2.4546584e+02   2.7266015e+02   2.9574405e+02   3.1758610e+02   3.3930362e+02   3.6288946e+02   3.8089176e+02   3.8922507e+02   3.8415959e+02   3.7049418e+02   3.5887448e+02   3.5818308e+02   3.6990951e+02   3.8440959e+02   3.8898615e+02   3.7776085e+02   3.5035295e+02   3.2042428e+02   3.0018084e+02   2.9893427e+02   3.1681612e+02   3.4470797e+02   3.7340663e+02   3.9899448e+02   4.2034267e+02   4.4064721e+02   4.6189121e+02   4.8014304e+02   4.9163491e+02   4.9361312e+02   4.8699952e+02   4.7694253e+02   4.7135839e+02   4.7056201e+02   4.7506576e+02   4.7758383e+02   4.7523423e+02   4.6388352e+02   4.4654879e+02   4.2875689e+02   4.1777164e+02   4.1462931e+02   4.1896742e+02   4.2567907e+02   4.2946749e+02   4.3140026e+02   4.3456612e+02   4.4591842e+02   4.6934978e+02   5.0399411e+02   5.4170195e+02   5.7159672e+02   5.8560008e+02   5.8181842e+02   5.6571065e+02   5.4400179e+02   5.2235952e+02   5.0290018e+02   4.8562528e+02   4.7090354e+02   4.6310159e+02   4.6343414e+02   4.7305605e+02   4.8636654e+02   4.9845081e+02   5.0455552e+02   5.0549007e+02   5.0486355e+02   5.0510689e+02   5.1027937e+02   5.1770803e+02   5.2454886e+02   5.3137594e+02   5.3590068e+02   5.4289492e+02   5.5234491e+02   5.6381265e+02   5.7093096e+02   5.6992775e+02   5.5906350e+02   5.3788269e+02   5.1421656e+02   4.9292697e+02   4.7843626e+02   4.7113412e+02   4.6577949e+02   4.5901845e+02   4.4911478e+02   4.4094642e+02   4.3926504e+02   4.4916183e+02   4.7163943e+02   5.0416987e+02   5.4112303e+02   5.8198067e+02   6.2929868e+02   6.8843638e+02   7.6212251e+02   8.4596284e+02   9.3400583e+02   1.0164676e+03   1.0856807e+03   1.1362790e+03   1.1665753e+03   1.1770454e+03   1.1698010e+03   1.1459423e+03   1.1136958e+03   1.0772983e+03   1.0436398e+03   1.0157312e+03   9.9410868e+02   9.8029833e+02   9.7645738e+02   9.8227438e+02   9.9415332e+02   1.0026520e+03   9.9408720e+02   9.5418588e+02   8.7765114e+02   7.6452932e+02   6.2630755e+02   4.7472756e+02   3.2336209e+02   1.8504910e+02   6.9307798e+01  -1.4137925e+01  -5.6629663e+01  -5.8586150e+01  -2.4262705e+01   2.9678121e+01   8.5680103e+01   1.2676724e+02   1.4586428e+02   1.4488514e+02   1.3256384e+02   1.2006196e+02   1.1443922e+02   1.1710678e+02   1.2439044e+02   1.3130892e+02   1.3562764e+02   1.3418875e+02   1.3145746e+02   1.2517602e+02   1.1599137e+02   9.8924674e+01   7.0583265e+01   3.2067618e+01  -1.4409720e+01  -6.1116059e+01  -1.0048047e+02  -1.2872606e+02  -1.4532486e+02  -1.5318637e+02  -1.5654852e+02  -1.5960379e+02  -1.6394928e+02  -1.7298646e+02  -1.8540403e+02  -1.9985741e+02  -2.1391189e+02  -2.2325612e+02  -2.2513139e+02  -2.1987249e+02  -2.1043023e+02  -2.0374951e+02  -2.0190846e+02  -2.0697842e+02  -2.1362743e+02  -2.1954945e+02  -2.2184291e+02  -2.2547716e+02  -2.3596923e+02  -2.5735062e+02  -2.9044236e+02  -3.2939011e+02  -3.6535461e+02  -3.9021761e+02  -4.0015845e+02  -3.9698245e+02  -3.8613360e+02  -3.7239026e+02  -3.5930932e+02  -3.5053591e+02  -3.4312355e+02  -3.3900519e+02  -3.3672100e+02  -3.3645242e+02  -3.3734427e+02  -3.4103462e+02  -3.4526725e+02  -3.5044590e+02  -3.5500377e+02  -3.5750542e+02  -3.5745968e+02  -3.5588844e+02  -3.5675285e+02  -3.6337184e+02  -3.7897193e+02  -4.0447901e+02  -4.3561020e+02  -4.6325686e+02  -4.8008419e+02  -4.8222231e+02  -4.6990036e+02  -4.4488426e+02  -4.1561787e+02  -3.8502933e+02  -3.5903553e+02  -3.3684152e+02  -3.2117723e+02  -3.1162621e+02  -3.0918391e+02  -3.1313318e+02  -3.2025833e+02  -3.2934736e+02  -3.3687135e+02  -3.4069431e+02  -3.4266244e+02  -3.4095018e+02  -3.3709623e+02  -3.3373125e+02  -3.3106782e+02  -3.3027511e+02  -3.3388579e+02  -3.4037372e+02  -3.4700220e+02  -3.5098005e+02  -3.4889245e+02  -3.4030998e+02  -3.2743665e+02  -3.1164646e+02  -2.9278010e+02  -2.7212440e+02  -2.4706622e+02  -2.1948472e+02  -1.9200469e+02  -1.7126673e+02  -1.6236970e+02  -1.6860651e+02  -1.8955343e+02  -2.1949899e+02  -2.5212655e+02  -2.8031100e+02  -2.9886591e+02  -3.0308882e+02  -2.9399580e+02  -2.7420347e+02  -2.5149193e+02  -2.3115002e+02  -2.1924948e+02  -2.1500737e+02  -2.1637456e+02  -2.1893518e+02  -2.2013230e+02  -2.2176067e+02  -2.2460831e+02  -2.2709442e+02  -2.2475293e+02  -2.1444473e+02  -1.9324347e+02  -1.7001397e+02  -1.5477203e+02  -1.5996705e+02  -1.8684826e+02  -2.2806141e+02  -2.6957391e+02  -2.9795705e+02  -3.1197602e+02  -3.1437056e+02  -3.1566670e+02  -3.1985020e+02  -3.2276062e+02  -3.1712231e+02  -2.9620528e+02  -2.6318662e+02  -2.2734618e+02  -2.0126459e+02  -1.9318944e+02  -2.0169800e+02  -2.2071977e+02  -2.4390339e+02  -2.6323856e+02  -2.7778904e+02  -2.8537081e+02  -2.8802389e+02  -2.8617446e+02  -2.8245443e+02  -2.7922392e+02  -2.7890936e+02  -2.8531284e+02  -2.9505558e+02  -3.0829013e+02  -3.2175582e+02  -3.3217566e+02  -3.3791586e+02  -3.3776782e+02  -3.2968264e+02  -3.1329480e+02  -2.8811398e+02  -2.5733439e+02  -2.2429223e+02  -1.9467800e+02  -1.7066407e+02  -1.5812730e+02  -1.5812692e+02  -1.7174527e+02  -1.9532111e+02  -2.2402292e+02  -2.4763778e+02  -2.6040692e+02  -2.6073111e+02  -2.5359962e+02  -2.4265836e+02  -2.3491314e+02  -2.3114341e+02  -2.3116578e+02  -2.3011765e+02  -2.2792568e+02  -2.2508043e+02  -2.2376914e+02  -2.2433656e+02  -2.2496881e+02  -2.2044324e+02  -2.0777029e+02  -1.8757474e+02  -1.6112030e+02  -1.3395963e+02  -1.1127480e+02  -9.5043773e+01  -8.6209090e+01  -8.6028094e+01  -9.3747830e+01  -1.1068018e+02  -1.3666804e+02  -1.6784995e+02  -1.9556704e+02  -2.1122509e+02  -2.1093436e+02  -1.9379722e+02  -1.6678933e+02  -1.3926660e+02  -1.1820998e+02  -1.0837479e+02  -1.0752926e+02  -1.1194517e+02  -1.1524546e+02  -1.1563379e+02  -1.1344545e+02  -1.0888780e+02  -1.0579693e+02  -1.0123355e+02  -9.5778684e+01  -8.7456493e+01  -7.6297227e+01  -6.5634788e+01  -6.0295103e+01  -6.4859314e+01  -8.2171885e+01  -1.0921276e+02  -1.3837418e+02  -1.6409446e+02  -1.7972159e+02  -1.8242824e+02  -1.7398483e+02  -1.5822598e+02  -1.3910918e+02  -1.1935032e+02  -9.7710782e+01  -7.4084262e+01  -4.9573673e+01  -2.6749633e+01  -1.1241814e+01  -9.7420489e+00  -2.3408716e+01  -4.8575920e+01  -7.7605971e+01  -9.7694773e+01  -1.0345298e+02  -9.5137096e+01  -7.9484868e+01  -6.5198143e+01  -6.0196143e+01  -6.5813749e+01  -7.9132627e+01  -9.3603547e+01  -1.0505371e+02  -1.1208635e+02  -1.1379145e+02  -1.1061472e+02  -1.0019367e+02  -7.7973371e+01  -4.3459188e+01   2.9592969e+00   5.4586341e+01   1.0428643e+02   1.4546123e+02   1.7293407e+02   1.8855699e+02   1.9841318e+02   2.0557343e+02   2.1445993e+02   2.2295333e+02   2.3043319e+02   2.3595375e+02   2.4372636e+02   2.5801119e+02   2.8443112e+02   3.2362873e+02   3.6911250e+02   4.1209930e+02   4.4516225e+02   4.6353885e+02   4.7103163e+02   4.7452558e+02   4.8223424e+02   4.9984808e+02   5.2978269e+02   5.6670367e+02   6.0444517e+02   6.3835183e+02   6.6097952e+02   6.7200974e+02   6.7118122e+02   6.6003613e+02   6.4331450e+02   6.2390421e+02   6.0234864e+02   5.8000909e+02   5.5705303e+02   5.3747828e+02   5.2837518e+02   5.3557888e+02   5.6278074e+02   6.0506907e+02   6.5377935e+02   6.9446797e+02   7.2080001e+02   7.3016228e+02   7.2887546e+02   7.2696858e+02   7.2957591e+02   7.3909975e+02   7.5233323e+02   7.6474536e+02   7.7609282e+02   7.8544879e+02   7.9564569e+02   8.0603314e+02   8.1638150e+02   8.2172497e+02   8.1694971e+02   8.0198587e+02   7.7754838e+02   7.4847084e+02   7.2276678e+02   7.0761486e+02   7.0848436e+02   7.2758969e+02   7.5979440e+02   7.9899012e+02   8.3487449e+02   8.6196719e+02   8.7765219e+02   8.8502966e+02   8.8540176e+02   8.8129680e+02   8.7503472e+02   8.6293618e+02   8.4535269e+02   8.2573196e+02   8.0892200e+02   7.9886273e+02   7.9772615e+02   8.0146584e+02   8.0164486e+02   7.9034929e+02   7.6297530e+02   7.2470609e+02   6.8356417e+02   6.5302033e+02   6.3924014e+02   6.4413251e+02   6.6141100e+02   6.8488019e+02   7.0811227e+02   7.2859635e+02   7.4434041e+02   7.5480705e+02   7.5898983e+02   7.5440466e+02   7.4178660e+02   7.2034346e+02   6.9251204e+02   6.6026799e+02   6.2613547e+02   5.9510591e+02   5.7169333e+02   5.6032273e+02   5.6117428e+02   5.7050687e+02   5.8338016e+02   5.9260825e+02   5.9472981e+02   5.9077786e+02   5.8267917e+02   5.7319767e+02   5.6243864e+02   5.5203009e+02   5.4217017e+02   5.3676106e+02   5.3783142e+02   5.4638643e+02   5.6072939e+02   5.7619377e+02   5.8613135e+02   5.8594309e+02   5.7192541e+02   5.4474229e+02   5.0641153e+02   4.5879805e+02   4.0871324e+02   3.5980480e+02   3.1946864e+02   2.9201001e+02   2.8022920e+02   2.8351655e+02   2.9843278e+02   3.1864755e+02   3.3703330e+02   3.4768040e+02   3.4461861e+02   3.2909644e+02   3.0236734e+02   2.6904106e+02   2.3515282e+02   2.0616446e+02   1.8212492e+02   1.6518039e+02   1.5454495e+02   1.4793881e+02   1.4239513e+02   1.3225278e+02   1.1410845e+02   8.3508290e+01   4.1215021e+01  -8.0211450e+00  -5.9149780e+01  -1.0382549e+02  -1.4051892e+02  -1.6749420e+02  -1.8543969e+02  -1.9561103e+02  -1.9444863e+02  -1.8374522e+02  -1.6653421e+02  -1.5293121e+02  -1.5417030e+02  -1.7603504e+02  -2.1579949e+02  -2.5768422e+02  -2.8472283e+02  -2.8084612e+02  -2.3894712e+02  -1.6669660e+02  -7.6936060e+01   1.6429854e+01   1.0200812e+02   1.7682247e+02   2.3533866e+02   2.7737448e+02   2.9768417e+02   2.9608153e+02   2.7606834e+02   2.4804726e+02   2.2429245e+02   2.1390809e+02   2.2001086e+02   2.3832594e+02   2.6029746e+02   2.8070234e+02   2.9464563e+02   3.0173070e+02   2.9715696e+02   2.7651065e+02   2.3107785e+02   1.5261053e+02   3.8592497e+01  -1.0384096e+02  -2.6210218e+02  -4.1621692e+02  -5.4853464e+02  -6.4593894e+02  -7.0252227e+02  -7.1680549e+02  -6.9668015e+02  -6.4831006e+02  -5.8323517e+02  -5.1387288e+02  -4.5152281e+02  -4.0186739e+02  -3.6984994e+02  -3.4972693e+02  -3.3505215e+02  -3.2036476e+02  -3.0041867e+02  -2.7989306e+02  -2.6263956e+02  -2.5362681e+02  -2.5881276e+02  -2.7619440e+02  -3.0525022e+02  -3.4090615e+02  -3.8204481e+02  -4.2345850e+02  -4.6005050e+02  -4.8503317e+02  -4.8887008e+02  -4.7076384e+02  -4.3358620e+02  -3.8726768e+02  -3.4477806e+02  -3.1591645e+02  -3.0616866e+02  -3.0987318e+02  -3.2086817e+02  -3.3268557e+02  -3.4123880e+02  -3.4784324e+02  -3.5533682e+02  -3.6104821e+02  -3.6139616e+02  -3.5398704e+02  -3.3719036e+02  -3.1629045e+02  -3.0140740e+02  -3.0043399e+02  -3.1723347e+02  -3.4928692e+02  -3.8587992e+02  -4.1879935e+02  -4.3939647e+02  -4.4678992e+02  -4.3994723e+02  -4.1840718e+02  -3.8447963e+02  -3.4587142e+02  -3.0880952e+02  -2.8184205e+02  -2.7256723e+02  -2.7855677e+02  -2.9469925e+02  -3.1109816e+02  -3.2354146e+02  -3.3243574e+02  -3.4500040e+02  -3.6446227e+02  -3.8999434e+02  -4.1420020e+02  -4.2504743e+02  -4.1827511e+02  -3.9541634e+02  -3.6966155e+02  -3.5382181e+02  -3.5362848e+02  -3.6852964e+02  -3.9103142e+02  -4.1051020e+02  -4.2031483e+02  -4.1891089e+02  -4.0680700e+02  -3.8504889e+02  -3.5415983e+02  -3.1652756e+02  -2.7935956e+02  -2.5242516e+02  -2.4385245e+02  -2.5823934e+02  -2.9127282e+02  -3.3294281e+02  -3.7230983e+02  -4.0266700e+02  -4.2085227e+02  -4.2843497e+02  -4.2552852e+02  -4.1206219e+02  -3.8846237e+02  -3.5482057e+02  -3.1873648e+02  -2.8709169e+02  -2.6802361e+02  -2.6232078e+02  -2.6836740e+02  -2.8064072e+02  -2.9064265e+02  -2.9205010e+02  -2.8081986e+02  -2.5899442e+02  -2.2802101e+02  -1.9350576e+02  -1.6045059e+02  -1.3613766e+02  -1.2390673e+02  -1.2509833e+02  -1.3940232e+02  -1.6476518e+02  -1.9788907e+02  -2.3322626e+02  -2.6326388e+02  -2.8082870e+02  -2.7713494e+02  -2.5335157e+02  -2.1056689e+02  -1.5715807e+02  -1.0269912e+02  -5.5640167e+01  -2.1038510e+01  -1.6091067e+00   7.0876580e-01  -1.1415111e+01  -3.4421462e+01  -5.6966770e+01  -6.9164909e+01  -6.4687550e+01  -4.2479836e+01  -1.3935033e+01   1.0507008e+01   1.9242671e+01   1.1666666e+01  -7.6527479e+00  -2.7054895e+01  -3.9338519e+01  -4.4894204e+01  -5.0398786e+01  -6.0927230e+01  -7.5242875e+01  -8.3984000e+01  -7.6483692e+01  -4.4036595e+01   7.4552170e+00   6.7391687e+01   1.1675241e+02   1.4447570e+02   1.4864807e+02   1.3525371e+02   1.1332691e+02   8.8478656e+01   6.1902586e+01   3.3076404e+01   2.4387632e+00  -2.1675309e+01  -3.0616365e+01  -1.5402370e+01   1.7884131e+01   5.8140776e+01   8.7491935e+01   9.4454938e+01   7.9762703e+01   5.2657614e+01   2.8590557e+01   1.9392339e+01   2.8104000e+01   4.9730201e+01   7.6199293e+01   1.0177019e+02   1.2502914e+02   1.4848981e+02   1.7367700e+02   1.9946543e+02   2.2138652e+02   2.3161916e+02   2.2544627e+02   2.0307196e+02   1.7083174e+02   1.3895832e+02   1.1516191e+02   1.0532395e+02   1.1157854e+02   1.3197237e+02   1.6176891e+02   1.9932382e+02   2.3833603e+02   2.7619987e+02   3.0616348e+02   3.2404516e+02   3.2835727e+02   3.2182006e+02   3.1438282e+02   3.1397803e+02   3.2729357e+02   3.5284288e+02   3.8554629e+02   4.1792216e+02   4.4085008e+02   4.5273946e+02   4.5484424e+02   4.5042924e+02   4.4452291e+02   4.3707984e+02   4.2750433e+02   4.1362618e+02   3.9634079e+02   3.8020137e+02   3.7326402e+02   3.8243464e+02   4.1146025e+02   4.5656920e+02   5.0762629e+02   5.5255789e+02   5.8174524e+02   5.9109198e+02   5.8454337e+02   5.6795474e+02   5.4834781e+02   5.2772582e+02   5.0771333e+02   4.9032167e+02   4.8211114e+02   4.8593091e+02   5.0528844e+02   5.3625930e+02   5.6972825e+02   5.9367752e+02   5.9922802e+02   5.8519293e+02   5.5501109e+02   5.1806645e+02   4.8553615e+02   4.6601759e+02   4.6623642e+02   4.8712367e+02   5.2747236e+02   5.8025992e+02   6.3557816e+02   6.8498016e+02   7.1696151e+02   7.2826255e+02   7.1671481e+02   6.8445214e+02   6.4044306e+02   5.9344584e+02   5.5361185e+02   5.2703665e+02   5.1756785e+02   5.2312065e+02   5.3964007e+02   5.5970685e+02   5.7864338e+02   5.9186760e+02   6.0019031e+02   6.0376575e+02   6.0148459e+02   5.9472323e+02   5.8350774e+02   5.7328232e+02   5.7056117e+02   5.8377077e+02   6.1554880e+02   6.6266644e+02   7.1660334e+02   7.6065944e+02   7.8336811e+02   7.7590471e+02   7.4418290e+02   6.9839468e+02   6.5186961e+02   6.1527426e+02   5.9431598e+02   5.8522239e+02   5.8631753e+02   5.9399480e+02   6.0530213e+02   6.1922287e+02   6.3458608e+02   6.4640520e+02   6.5435308e+02   6.5605403e+02   6.5491672e+02   6.5533382e+02   6.6021503e+02   6.6796710e+02   6.7415604e+02   6.7715546e+02   6.7908731e+02   6.8529468e+02   7.0046749e+02   7.2539571e+02   7.5118324e+02   7.6665206e+02   7.5962034e+02   7.2776396e+02   6.7685985e+02   6.2034464e+02   5.7227229e+02   5.4288769e+02   5.3611986e+02   5.5031877e+02   5.8051047e+02   6.2333494e+02   6.7168511e+02   7.1691480e+02   7.5136108e+02   7.6785862e+02   7.6692660e+02   7.5137915e+02   7.2823674e+02   7.0696638e+02   6.9322392e+02   6.8937802e+02   6.9614059e+02   7.0960184e+02   7.2687734e+02   7.4443689e+02   7.5703420e+02   7.6502259e+02   7.6675646e+02   7.6175918e+02   7.5139051e+02   7.3385702e+02   7.0955654e+02   6.8189580e+02   6.5984008e+02   6.5351577e+02   6.7017891e+02   7.0978554e+02   7.6226993e+02   8.1448308e+02   8.5359868e+02   8.7369097e+02   8.7714849e+02   8.6762162e+02   8.5030021e+02   8.2346136e+02   7.8838369e+02   7.4686024e+02   7.0562783e+02   6.7704675e+02   6.6830921e+02   6.7833840e+02   6.9938931e+02   7.1720944e+02   7.2149667e+02   7.0932849e+02   6.8624546e+02   6.5975101e+02   6.3812015e+02   6.2156427e+02   6.0794334e+02   5.9331788e+02   5.7867016e+02   5.6508736e+02   5.5559844e+02   5.5071167e+02   5.5054398e+02   5.4730052e+02   5.3478297e+02   5.0959413e+02   4.6876980e+02   4.1669130e+02   3.5828641e+02   3.0068194e+02   2.5258976e+02   2.1876779e+02   2.0288222e+02   2.0401159e+02   2.1689554e+02   2.3387089e+02   2.4629046e+02   2.4811684e+02   2.3634810e+02   2.1297124e+02   1.8124436e+02   1.4425688e+02   1.0787551e+02   7.4318117e+01   4.6678105e+01   2.8731039e+01   2.1291034e+01   2.5261262e+01   3.3367212e+01   3.8408999e+01   3.2751255e+01   9.7147516e+00  -3.2446882e+01  -8.8212431e+01  -1.5018700e+02  -2.0815037e+02  -2.5354059e+02  -2.7905531e+02  -2.8402388e+02  -2.6925013e+02  -2.3913770e+02  -2.0206377e+02  -1.6512892e+02  -1.3554596e+02  -1.1900829e+02  -1.2138328e+02  -1.4000524e+02  -1.7271373e+02  -2.1262077e+02  -2.5443414e+02  -2.9104479e+02  -3.1803120e+02  -3.3275509e+02  -3.3281427e+02  -3.2176244e+02  -3.0516725e+02  -2.8922476e+02  -2.8424571e+02  -2.9435662e+02  -3.2171092e+02  -3.5739075e+02  -3.9302683e+02  -4.1900222e+02  -4.2997483e+02  -4.2637998e+02  -4.1257509e+02  -3.9436494e+02  -3.7377952e+02  -3.5313973e+02  -3.3560290e+02  -3.2249510e+02  -3.1978727e+02  -3.3304273e+02  -3.6406489e+02  -4.1032363e+02  -4.6407146e+02  -5.1291260e+02  -5.4649087e+02  -5.5093746e+02  -5.2177346e+02  -4.5708061e+02  -3.6391355e+02  -2.5309153e+02  -1.3864120e+02  -3.5236185e+01   4.7023004e+01   1.0322253e+02   1.3351220e+02   1.4227974e+02   1.3581267e+02   1.2175235e+02   1.0669109e+02   9.6232345e+01   9.2731566e+01   9.5784563e+01   1.0436361e+02   1.1335639e+02   1.1617103e+02   1.0605195e+02   7.8811219e+01   2.9805261e+01  -3.6849947e+01  -1.1966660e+02  -2.1148424e+02  -3.0712041e+02  -4.0462093e+02  -4.9984291e+02  -5.9024718e+02  -6.6994618e+02  -7.3421377e+02  -7.7477772e+02  -7.8926187e+02  -7.7810883e+02  -7.5020909e+02  -7.1330573e+02  -6.7507529e+02  -6.3963736e+02  -6.0715321e+02  -5.7715655e+02  -5.4732057e+02  -5.2049214e+02  -4.9998764e+02  -4.8831019e+02  -4.8857752e+02  -4.9901561e+02  -5.1886071e+02  -5.4492319e+02  -5.7392171e+02  -6.0352574e+02  -6.2988706e+02  -6.4833043e+02  -6.5183520e+02  -6.3698157e+02  -6.0414879e+02  -5.5691344e+02  -5.0476878e+02  -4.5643356e+02  -4.2210813e+02  -4.0804772e+02  -4.1575485e+02  -4.4095925e+02  -4.7838359e+02  -5.1912432e+02  -5.5334496e+02  -5.7491393e+02  -5.7963347e+02  -5.6979857e+02  -5.4897302e+02  -5.2404297e+02  -5.0076675e+02  -4.8515057e+02  -4.8001605e+02  -4.8608275e+02  -5.0177288e+02  -5.2178452e+02  -5.3830764e+02  -5.4461310e+02  -5.3365939e+02  -5.0635549e+02  -4.6819071e+02  -4.2408065e+02  -3.8144959e+02  -3.4273808e+02  -3.1365249e+02  -2.9653263e+02  -2.9719125e+02  -3.1947932e+02  -3.5967578e+02  -4.0862304e+02  -4.5036860e+02  -4.7596426e+02  -4.7804011e+02  -4.6082121e+02  -4.3137457e+02  -3.9704287e+02  -3.6219617e+02  -3.2758086e+02  -2.9662976e+02  -2.7410328e+02  -2.6335610e+02  -2.6838384e+02  -2.8363110e+02  -2.9937342e+02  -3.0735861e+02  -3.0133548e+02  -2.8412312e+02  -2.5797578e+02  -2.3115517e+02  -2.0579807e+02  -1.8532579e+02  -1.7174525e+02  -1.7121959e+02  -1.8622993e+02  -2.1752325e+02  -2.6087071e+02  -3.0648350e+02  -3.4178891e+02  -3.5918868e+02  -3.5742290e+02  -3.3924626e+02  -3.0927077e+02  -2.7000811e+02  -2.2331710e+02  -1.7258918e+02  -1.2606015e+02  -9.3607023e+01  -8.6282451e+01  -1.0767684e+02  -1.5001839e+02  -1.9776065e+02  -2.2930221e+02  -2.3545725e+02  -2.1435186e+02  -1.7755143e+02  -1.3939486e+02  -1.1268858e+02  -1.0205636e+02  -1.0731767e+02  -1.2326294e+02  -1.4710651e+02  -1.7374933e+02  -2.0180388e+02  -2.2416402e+02  -2.3677995e+02  -2.3424927e+02  -2.1387207e+02  -1.7693163e+02  -1.2712916e+02  -7.2284679e+01  -2.0575519e+01   1.8314207e+01   3.8739612e+01   3.7007420e+01   1.5462144e+01  -1.9268748e+01  -5.7704197e+01  -9.1302375e+01  -1.1322905e+02  -1.1972148e+02  -1.0975844e+02  -8.7900289e+01  -5.9345549e+01  -3.4422326e+01  -2.1855622e+01  -2.6199655e+01  -4.6785843e+01  -7.8421421e+01  -1.1190605e+02  -1.3725122e+02  -1.5132993e+02  -1.5058638e+02  -1.3542058e+02  -1.0793150e+02  -6.9842693e+01  -2.9614098e+01   3.0772923e+00   1.9163426e+01   1.1923600e+01  -1.8743595e+01  -6.6795424e+01  -1.2238749e+02  -1.7601688e+02  -2.2022616e+02  -2.5150682e+02  -2.6799753e+02  -2.6861711e+02  -2.5439466e+02  -2.2893295e+02  -1.9712901e+02  -1.6743544e+02  -1.4404379e+02  -1.3238577e+02  -1.3227500e+02  -1.4087003e+02  -1.5345663e+02  -1.6386710e+02  -1.6221325e+02  -1.4354219e+02  -1.0604037e+02  -5.5513640e+01  -2.0307413e+00   4.4194632e+01   7.3438461e+01   8.4255946e+01   7.9026470e+01   6.4905668e+01   4.3963587e+01   2.2465740e+01   2.4407956e+00  -1.1163043e+01  -1.2339397e+01   4.4978577e+00   4.1739358e+01   9.4677656e+01   1.5545953e+02   2.1369060e+02   2.6034978e+02   2.9160480e+02   3.0714230e+02   3.0573332e+02   2.9092133e+02   2.6591089e+02   2.3790879e+02   2.1528636e+02   2.0896884e+02   2.2340445e+02   2.5833615e+02   3.0242010e+02   3.4154701e+02   3.6456595e+02   3.6402107e+02   3.4350805e+02   3.1434075e+02   2.8537115e+02   2.6699373e+02   2.6154648e+02   2.6945751e+02   2.8754471e+02   3.1584693e+02   3.5725134e+02   4.1000989e+02   4.7204472e+02   5.3576943e+02   5.8804010e+02   6.1781933e+02   6.1519724e+02   5.8355151e+02   5.3081322e+02   4.7299872e+02   4.2532486e+02   4.0131380e+02   4.0329350e+02   4.2661219e+02   4.6172730e+02   4.9913783e+02   5.2994514e+02   5.4769023e+02   5.5105734e+02   5.3906523e+02   5.1548277e+02   4.8437840e+02   4.5390637e+02   4.3160255e+02   4.2557333e+02   4.3798583e+02   4.7020369e+02   5.1577025e+02   5.6525554e+02   6.0979112e+02   6.3796402e+02   6.4565848e+02   6.3144192e+02   5.9818769e+02   5.5179102e+02   4.9903034e+02   4.4781201e+02   4.0716988e+02   3.8344582e+02   3.8103814e+02   3.9998255e+02   4.3345016e+02   4.7404933e+02   5.1264428e+02   5.4129426e+02   5.5589254e+02   5.5615332e+02   5.4473956e+02   5.2451431e+02   5.0009119e+02   4.7801344e+02   4.6397144e+02   4.6345905e+02   4.7717067e+02   4.9927591e+02   5.2251317e+02   5.3686039e+02   5.3741147e+02   5.2303835e+02   4.9446344e+02   4.5749483e+02   4.1435871e+02   3.6826320e+02   3.2449641e+02   2.9146684e+02   2.8011011e+02   2.9300907e+02   3.2942211e+02   3.7921862e+02   4.2652479e+02   4.5872981e+02   4.6842409e+02   4.5585730e+02   4.2760846e+02   3.8933163e+02   3.4664203e+02   3.0339283e+02   2.6072387e+02   2.2331089e+02   1.9819643e+02   1.8745372e+02   1.9174963e+02   2.0267357e+02   2.1152985e+02   2.0718859e+02   1.8157741e+02   1.3647579e+02   7.6428538e+01   1.1790558e+01  -4.3891281e+01  -8.1804701e+01  -9.4680735e+01  -8.3081306e+01  -5.1873052e+01  -1.0771520e+01   2.7957790e+01   5.1370081e+01   5.3885854e+01   3.3071105e+01  -6.2295999e+00  -5.6651884e+01  -1.1401476e+02  -1.7381705e+02  -2.3220546e+02  -2.8299164e+02  -3.1728644e+02  -3.2540504e+02  -3.0485595e+02  -2.6342779e+02  -2.1758366e+02  -1.8352344e+02  -1.7434473e+02  -1.8970839e+02  -2.1830177e+02  -2.4621427e+02  -2.6113702e+02  -2.6011531e+02  -2.4745878e+02  -2.3137875e+02  -2.1798084e+02  -2.0838322e+02  -1.9892330e+02  -1.8661838e+02  -1.7321173e+02  -1.6323066e+02  -1.6648399e+02  -1.9033387e+02  -2.3591032e+02  -2.9823281e+02  -3.6300568e+02  -4.1370714e+02  -4.3952652e+02  -4.3473567e+02  -4.0520315e+02  -3.6294329e+02  -3.2180201e+02  -2.8656626e+02  -2.6290781e+02  -2.4860520e+02  -2.4642507e+02  -2.5689715e+02  -2.8302142e+02  -3.2374052e+02  -3.6984365e+02  -4.0987515e+02  -4.3062090e+02  -4.2884167e+02  -4.0808955e+02  -3.8064865e+02  -3.5983592e+02  -3.5604195e+02  -3.7295078e+02  -4.0834101e+02  -4.5974394e+02  -5.2104682e+02  -5.8492112e+02  -6.3977307e+02  -6.7479608e+02  -6.8267910e+02  -6.6059626e+02  -6.1725741e+02  -5.6500093e+02  -5.1711812e+02  -4.8276480e+02  -4.6690518e+02  -4.6872629e+02  -4.8685901e+02  -5.1756676e+02  -5.5885323e+02  -6.0624169e+02  -6.4983436e+02  -6.8120233e+02  -6.9369542e+02  -6.8689241e+02  -6.6710150e+02  -6.4403142e+02  -6.2793598e+02  -6.2665074e+02  -6.4196317e+02  -6.7068381e+02  -7.0862944e+02  -7.4852693e+02  -7.8164130e+02  -8.0376909e+02  -8.0715439e+02  -7.9089931e+02  -7.5654791e+02  -7.0970310e+02  -6.5874688e+02  -6.1293153e+02  -5.8324889e+02  -5.7553603e+02  -5.9322709e+02  -6.3802292e+02  -7.0255262e+02  -7.7588736e+02  -8.4258236e+02  -8.8981014e+02  -9.0712835e+02  -8.9550739e+02  -8.6140370e+02  -8.1787357e+02  -7.7793055e+02  -7.4951280e+02  -7.3651035e+02  -7.3728533e+02  -7.5000783e+02  -7.7294798e+02  -8.0065278e+02  -8.2874013e+02  -8.4690519e+02  -8.4868744e+02  -8.2759819e+02  -7.8835054e+02  -7.3713122e+02  -6.8706750e+02  -6.5122111e+02  -6.3854935e+02  -6.5328398e+02  -6.9609049e+02  -7.5920234e+02  -8.3251295e+02  -9.0239929e+02  -9.5389069e+02  -9.7371911e+02  -9.5681186e+02  -9.0490605e+02  -8.2515433e+02  -7.2680836e+02  -6.1826606e+02  -5.0690430e+02  -3.9816420e+02  -2.9929820e+02  -2.1704231e+02  -1.5527386e+02  -1.1649933e+02  -9.4835675e+01  -8.4042862e+01  -7.5155342e+01  -6.1351659e+01  -3.9870904e+01  -1.5997069e+01   5.6605180e+00   1.8204844e+01   1.5349713e+01  -3.2495059e+00  -3.7537705e+01  -8.0587160e+01  -1.2600584e+02  -1.6792659e+02  -2.0114681e+02  -2.2595146e+02  -2.4921772e+02  -2.7955344e+02  -3.2543042e+02  -3.9249123e+02  -4.7738811e+02  -5.6761484e+02  -6.5079460e+02  -7.0978808e+02  -7.4080938e+02  -7.4251794e+02  -7.2184521e+02  -6.8815598e+02  -6.4727404e+02  -6.0093476e+02  -5.5135455e+02  -5.0080244e+02  -4.5327914e+02  -4.1860472e+02  -4.0134516e+02  -4.0504288e+02  -4.2514705e+02  -4.5488438e+02  -4.8410127e+02  -5.0789247e+02  -5.1865503e+02  -5.1411033e+02  -4.9284090e+02  -4.5299295e+02  -3.9897778e+02  -3.3822374e+02  -2.8324074e+02  -2.4641086e+02  -2.3598267e+02  -2.5270509e+02  -2.9240044e+02  -3.4457384e+02  -3.9993265e+02  -4.5049235e+02  -4.8981862e+02  -5.1192661e+02  -5.0943321e+02  -4.8072114e+02  -4.3008843e+02  -3.6907712e+02  -3.1735249e+02  -2.8659897e+02  -2.8289370e+02  -2.9990963e+02  -3.2711672e+02  -3.4992769e+02  -3.6252716e+02  -3.6097065e+02  -3.4708204e+02  -3.2272143e+02  -2.9113571e+02  -2.5630687e+02  -2.2243581e+02  -1.9689260e+02  -1.8908438e+02  -2.0171377e+02  -2.3481895e+02  -2.8381657e+02  -3.3855150e+02  -3.8813641e+02  -4.2119088e+02  -4.3000041e+02  -4.1113033e+02  -3.6914664e+02  -3.1328714e+02  -2.5515370e+02  -2.0670706e+02  -1.7399606e+02  -1.5810928e+02  -1.5678672e+02  -1.6398409e+02  -1.7847373e+02  -1.9733954e+02  -2.1802952e+02  -2.3650905e+02  -2.4703850e+02  -2.4218423e+02  -2.1984308e+02  -1.8627931e+02  -1.5039257e+02  -1.2660655e+02  -1.2385233e+02  -1.4610135e+02  -1.8578192e+02  -2.3421910e+02  -2.7901090e+02  -3.1104635e+02  -3.2472649e+02  -3.1590127e+02  -2.8509402e+02  -2.3173736e+02  -1.6235900e+02  -8.7883440e+01  -2.1408691e+01   2.2067346e+01   3.4484485e+01   1.4728537e+01  -3.1403754e+01  -8.7271523e+01  -1.4125419e+02  -1.7900704e+02  -1.9561963e+02  -1.9221139e+02  -1.7362486e+02  -1.4407546e+02  -1.0984649e+02  -7.1326139e+01  -3.6828032e+01  -9.6809275e+00  -1.3747484e-02  -1.2505362e+01  -4.6155275e+01  -8.9903473e+01  -1.2773881e+02  -1.4182491e+02  -1.2216676e+02  -7.0439864e+01   2.2129551e+00   7.7385016e+01   1.3735707e+02   1.6937708e+02   1.7177427e+02   1.4744554e+02   1.0838659e+02   6.0145284e+01   1.3308999e+01  -2.7654239e+01  -5.7739227e+01  -7.0431034e+01  -5.9983990e+01  -2.3682369e+01   3.3965918e+01   1.0392027e+02   1.6780927e+02   2.1216154e+02   2.3017920e+02   2.2267134e+02   2.0295126e+02   1.8372954e+02   1.7725750e+02   1.8513922e+02   2.0830396e+02   2.4159305e+02   2.8528058e+02   3.3563808e+02   3.8642322e+02   4.2996532e+02   4.5438671e+02   4.5246565e+02   4.2472228e+02   3.7947724e+02   3.2985690e+02   2.9095009e+02   2.7050818e+02   2.7268297e+02   2.9529108e+02   3.3598186e+02   3.9049125e+02   4.5392974e+02   5.1882888e+02   5.7550720e+02   6.1624800e+02   6.3482349e+02   6.3004343e+02   6.0621874e+02   5.7266773e+02   5.3859964e+02   5.1284472e+02   5.0493056e+02   5.1792560e+02   5.5329968e+02   6.0282585e+02   6.5531701e+02   6.9380570e+02   7.0667782e+02   6.8727975e+02   6.4163494e+02   5.8510249e+02   5.3704446e+02   5.1078871e+02   5.1133285e+02   5.3629425e+02   5.7856153e+02   6.2995204e+02   6.8796181e+02   7.4845621e+02   8.0294437e+02   8.4395133e+02   8.6097868e+02   8.4663241e+02   8.0567618e+02   7.5099962e+02   6.9572688e+02   6.5387499e+02   6.3206814e+02   6.3379929e+02   6.5360930e+02   6.8835202e+02   7.2947538e+02   7.7002756e+02   7.9893858e+02   8.0907064e+02   7.9658265e+02   7.6630833e+02   7.2706618e+02   6.9205716e+02   6.7270857e+02   6.7444680e+02   6.9589876e+02   7.3292922e+02   7.7673751e+02   8.1700437e+02   8.4384720e+02   8.5216225e+02   8.3784333e+02   8.0439100e+02   7.5455480e+02   6.9586093e+02   6.3411813e+02   5.7421779e+02   5.2569732e+02   4.9658826e+02   4.9400939e+02   5.1880357e+02   5.6429122e+02   6.1597122e+02   6.5779571e+02   6.7752246e+02   6.7063431e+02   6.3941249e+02   5.9293838e+02   5.4203377e+02   4.9538397e+02   4.6126636e+02   4.4339297e+02   4.4334924e+02   4.5797790e+02   4.7884732e+02   4.9370255e+02   4.9157844e+02   4.6810601e+02   4.2349745e+02   3.6376354e+02   2.9688403e+02   2.3088020e+02   1.6898034e+02   1.1726933e+02   7.9328888e+01   6.0380593e+01   6.4337201e+01   9.0972275e+01   1.3517675e+02   1.8403529e+02   2.2227840e+02   2.3358435e+02   2.1023913e+02   1.5380188e+02   7.4640635e+01  -6.5513907e+00  -7.3928250e+01  -1.1687255e+02  -1.3306384e+02  -1.2978341e+02  -1.1617490e+02  -1.0141186e+02  -8.9964492e+01  -8.7357014e+01  -9.7918908e+01  -1.2603501e+02  -1.7228860e+02  -2.3269432e+02  -2.9497610e+02  -3.4561324e+02  -3.7320543e+02  -3.7263430e+02  -3.4654011e+02  -3.0377975e+02  -2.5275313e+02  -2.0173279e+02  -1.5854945e+02  -1.3212909e+02  -1.2841154e+02  -1.5410034e+02  -2.0951405e+02  -2.8257203e+02  -3.5970225e+02  -4.2125932e+02  -4.5693189e+02  -4.6062228e+02  -4.4139809e+02  -4.1031881e+02  -3.7918654e+02  -3.5650462e+02  -3.4509912e+02  -3.4593027e+02  -3.5557583e+02  -3.7471884e+02  -4.0174822e+02  -4.3333478e+02  -4.6462809e+02  -4.8658202e+02  -4.9188700e+02  -4.7307299e+02  -4.3252927e+02  -3.7942614e+02  -3.2876681e+02  -2.9799136e+02  -2.9665650e+02  -3.2670234e+02  -3.8169156e+02  -4.4919723e+02  -5.1426519e+02  -5.6664351e+02  -6.0030319e+02  -6.1170986e+02  -6.0135944e+02  -5.7024899e+02  -5.2118513e+02  -4.6008332e+02  -3.9962959e+02  -3.5081278e+02  -3.2686147e+02  -3.3202826e+02  -3.5847768e+02  -3.9629093e+02  -4.2935532e+02  -4.4871401e+02  -4.5385084e+02  -4.4840239e+02  -4.3691669e+02  -4.2349050e+02  -4.0736557e+02  -3.8879629e+02  -3.7266319e+02  -3.6936579e+02  -3.8946809e+02  -4.3540687e+02  -5.0233968e+02  -5.7195812e+02  -6.2587908e+02  -6.5009619e+02  -6.3995760e+02  -6.0523609e+02  -5.5505250e+02  -5.0266263e+02  -4.5536265e+02  -4.1796106e+02  -3.9635847e+02  -3.9475326e+02  -4.1685530e+02  -4.6227078e+02  -5.1996648e+02  -5.8048921e+02  -6.2745201e+02  -6.5474481e+02  -6.5998924e+02  -6.4592618e+02  -6.2166052e+02  -5.9693924e+02  -5.7985193e+02  -5.7946970e+02  -6.0195039e+02  -6.4553526e+02  -7.0466421e+02  -7.6718836e+02  -8.1741550e+02  -8.4153741e+02  -8.3190111e+02  -7.8961728e+02  -7.2514194e+02  -6.5469102e+02  -5.9660303e+02  -5.6099602e+02  -5.5122180e+02  -5.6466691e+02  -5.9337746e+02  -6.3080778e+02  -6.7475014e+02  -7.2224705e+02  -7.6807552e+02  -8.0526900e+02  -8.2113586e+02  -8.0934424e+02  -7.6884646e+02  -7.0967052e+02  -6.4885150e+02  -6.0296281e+02  -5.8279166e+02  -5.8766893e+02  -6.1081719e+02  -6.3985425e+02  -6.6633436e+02  -6.8197894e+02  -6.8409680e+02  -6.6965100e+02  -6.3850738e+02  -5.9258013e+02  -5.3683337e+02  -4.8235127e+02  -4.4089652e+02  -4.2349309e+02  -4.3756720e+02  -4.8006164e+02  -5.4172794e+02  -6.1054462e+02  -6.7096358e+02  -7.1250537e+02  -7.2714582e+02  -7.1198073e+02  -6.6980997e+02  -6.0351666e+02  -5.2637735e+02  -4.5367018e+02  -4.0209906e+02  -3.8058984e+02  -3.9193137e+02  -4.2654769e+02  -4.6844003e+02  -5.0208100e+02  -5.2083575e+02  -5.2337144e+02  -5.1252111e+02  -4.9219048e+02  -4.6610903e+02  -4.3648299e+02  -4.0685163e+02  -3.8562580e+02  -3.8185869e+02  -4.0275013e+02  -4.4822488e+02  -5.1168952e+02  -5.7681264e+02  -6.3194635e+02  -6.6266303e+02  -6.6485281e+02  -6.3691953e+02  -5.8180687e+02  -5.0284034e+02  -4.0762757e+02  -3.0046433e+02  -1.9480286e+02  -1.0332448e+02  -3.7029157e+01   1.4666893e+00   1.7494565e+01   2.8077307e+01   4.8344946e+01   8.8185752e+01   1.4264055e+02   2.0238378e+02   2.5539438e+02   2.9165823e+02   3.1251767e+02   3.1914165e+02   3.1056565e+02   2.8584658e+02   2.4007376e+02   1.7823195e+02   1.1316602e+02   6.3098036e+01   4.3248573e+01   5.4093526e+01   8.1650970e+01   1.0096721e+02   8.8708284e+01   3.0519888e+01  -7.2352137e+01  -2.0474853e+02  -3.4609434e+02  -4.7903766e+02  -5.8931229e+02  -6.6664276e+02  -7.0428406e+02  -7.0065054e+02  -6.5747019e+02  -5.8100405e+02  -4.8707457e+02  -3.9190575e+02  -3.1103657e+02  -2.5476916e+02  -2.2571267e+02  -2.2295941e+02  -2.3928880e+02  -2.6756660e+02  -3.0024265e+02  -3.2860830e+02  -3.4230684e+02  -3.3753522e+02  -3.1344270e+02  -2.7541081e+02  -2.3014538e+02  -1.8677561e+02  -1.5437562e+02  -1.3945440e+02  -1.4697019e+02  -1.7831373e+02  -2.2849453e+02  -2.8850206e+02  -3.4555685e+02  -3.8677014e+02  -4.0364010e+02  -3.9084524e+02  -3.4994693e+02  -2.8884854e+02  -2.1812739e+02  -1.5060023e+02  -1.0064767e+02  -7.7874043e+01  -8.7604460e+01  -1.2253660e+02  -1.7161260e+02  -2.2090914e+02  -2.5612304e+02  -2.7210126e+02  -2.6585663e+02  -2.4262698e+02  -2.0574722e+02  -1.6536803e+02  -1.3030896e+02  -1.1352722e+02  -1.2276779e+02  -1.6092275e+02  -2.2047139e+02  -2.8713510e+02  -3.4261266e+02  -3.7402177e+02  -3.7951486e+02  -3.6149469e+02  -3.2594037e+02  -2.8254506e+02  -2.3262502e+02  -1.8102722e+02  -1.3448104e+02  -1.0096177e+02  -9.1632828e+01  -1.1580812e+02  -1.7015550e+02  -2.4409377e+02  -3.1707638e+02  -3.6926487e+02  -3.8601140e+02  -3.6261471e+02  -3.0897466e+02  -2.4101265e+02  -1.7499669e+02  -1.2314924e+02  -9.0072192e+01  -7.6561939e+01  -7.8299040e+01  -9.0703446e+01  -1.1098682e+02  -1.3116839e+02  -1.4260651e+02  -1.3648205e+02  -1.0467814e+02  -4.5632148e+01   3.3040088e+01   1.2007737e+02   1.9593806e+02   2.4548673e+02   2.6141820e+02   2.4188874e+02   1.9599476e+02   1.3798768e+02   8.2388543e+01   3.8404360e+01   1.5200789e+01   1.4615902e+01   3.6804909e+01   8.1102518e+01   1.4112497e+02   2.0986527e+02   2.7531959e+02   3.2607026e+02   3.5226247e+02   3.4854771e+02   3.2179584e+02   2.8364850e+02   2.4924268e+02   2.3461484e+02   2.4736556e+02   2.8710697e+02   3.4504109e+02   4.0976715e+02   4.6714315e+02   5.0779283e+02   5.2670390e+02   5.2034064e+02   4.9179747e+02   4.4572858e+02   3.9005606e+02   3.3672691e+02   2.9699900e+02   2.8284139e+02   3.0101263e+02   3.5123496e+02   4.2664628e+02   5.1243465e+02   5.9030415e+02   6.4724130e+02   6.7798636e+02   6.8367986e+02   6.7033521e+02   6.4404463e+02   6.1210181e+02   5.7945973e+02   5.5108575e+02   5.3779505e+02   5.4603634e+02   5.7989184e+02   6.3428482e+02   6.9512114e+02   7.4088449e+02   7.5910508e+02   7.4214801e+02   6.9791866e+02   6.3932001e+02   5.8357388e+02   5.4676938e+02   5.3617503e+02   5.5390626e+02   5.9946585e+02   6.6548590e+02   7.4073960e+02   8.1321361e+02   8.7079964e+02   9.0302748e+02   9.0725097e+02   8.8281523e+02   8.3695457e+02   7.7744448e+02   7.1730156e+02   6.6603025e+02   6.3401266e+02   6.2860359e+02   6.4933758e+02   6.9041042e+02   7.4231822e+02   7.9028445e+02   8.2193424e+02   8.3162306e+02   8.1790521e+02   7.8681908e+02   7.4692845e+02   7.0933505e+02   6.8210529e+02   6.7268550e+02   6.8388371e+02   7.1787280e+02   7.6744571e+02   8.2547831e+02   8.7928796e+02   9.1737749e+02   9.2896566e+02   9.0974909e+02   8.6250458e+02   7.9639253e+02   7.2410380e+02   6.6024437e+02   6.1751839e+02   6.0431481e+02   6.2021540e+02   6.5974237e+02   7.1239409e+02   7.6473878e+02   8.0610682e+02   8.2829411e+02   8.2768965e+02   8.0636873e+02   7.6892169e+02   7.2406693e+02   6.8336318e+02   6.5553398e+02   6.4800067e+02   6.6117363e+02   6.8988218e+02   7.2707202e+02   7.6061734e+02   7.8184768e+02   7.8322949e+02   7.6060559e+02   7.1649076e+02   6.5312662e+02   5.7927144e+02   5.0897765e+02   4.5583374e+02   4.2926744e+02   4.3549655e+02   4.6957546e+02   5.1974899e+02   5.7304192e+02   6.1574413e+02   6.3925771e+02   6.4069354e+02   6.1866033e+02   5.7886560e+02   5.2540673e+02   4.6491538e+02   4.0496777e+02   3.5333055e+02   3.1864609e+02   3.0806101e+02   3.1909270e+02   3.4575522e+02   3.7368737e+02   3.8680566e+02   3.7588876e+02   3.3751563e+02   2.7892234e+02   2.1358143e+02   1.5359043e+02   1.0922041e+02   8.2162711e+01   7.2082075e+01   7.8019915e+01   9.9008061e+01   1.3398971e+02   1.7685857e+02   2.1818200e+02   2.4002242e+02   2.3024807e+02   1.8283252e+02   1.0186109e+02   4.2423531e+00  -8.9596968e+01  -1.6253506e+02  -2.0548630e+02  -2.2045294e+02  -2.1345865e+02  -1.9317125e+02  -1.6630771e+02  -1.4018058e+02  -1.2093069e+02  -1.1805774e+02  -1.3979194e+02  -1.8666261e+02  -2.5235504e+02  -3.2166072e+02  -3.7508483e+02  -4.0252896e+02  -3.9744830e+02  -3.6699935e+02  -3.2191432e+02  -2.7612027e+02  -2.3839794e+02  -2.1558945e+02  -2.1296541e+02  -2.3233173e+02  -2.7729694e+02  -3.4486977e+02  -4.2526723e+02  -5.0654949e+02  -5.7151652e+02  -6.0524354e+02  -5.9970972e+02  -5.5917068e+02  -4.9719783e+02  -4.3059677e+02  -3.7965922e+02  -3.5534618e+02  -3.6101270e+02  -3.9216350e+02  -4.3850186e+02  -4.9024966e+02  -5.3643801e+02  -5.7065627e+02  -5.8464741e+02  -5.7617461e+02  -5.4574498e+02  -5.0103067e+02  -4.5411566e+02  -4.1995755e+02  -4.0762793e+02  -4.2394671e+02  -4.6804023e+02  -5.3315205e+02  -6.0775995e+02  -6.7776571e+02  -7.2928649e+02  -7.5044236e+02  -7.3253162e+02  -6.7811624e+02  -5.9777515e+02  -5.1157175e+02  -4.3656167e+02  -3.8687553e+02  -3.6600367e+02  -3.7086629e+02  -3.9308093e+02  -4.2757914e+02  -4.6743058e+02  -5.1247129e+02  -5.5415911e+02  -5.8603338e+02  -5.9724425e+02  -5.8282432e+02  -5.4265222e+02  -4.8934610e+02  -4.3955989e+02  -4.0828643e+02  -4.0776894e+02  -4.3748728e+02  -4.8744799e+02  -5.4171794e+02  -5.8586611e+02  -6.0777501e+02  -6.0219979e+02  -5.7050469e+02  -5.1818535e+02  -4.5304990e+02  -3.8722572e+02  -3.3041644e+02  -2.9400062e+02  -2.8659995e+02  -3.1064575e+02  -3.6125692e+02  -4.3245866e+02  -5.0848034e+02  -5.7663753e+02  -6.2417644e+02  -6.4346922e+02  -6.3509019e+02  -6.0254853e+02  -5.5874617e+02  -5.1550621e+02  -4.8571995e+02  -4.7574019e+02  -4.8859260e+02  -5.2139412e+02  -5.6610023e+02  -6.1140962e+02  -6.4739847e+02  -6.6529612e+02  -6.5978158e+02  -6.3228635e+02  -5.9000739e+02  -5.4161914e+02  -5.0096122e+02  -4.7520612e+02  -4.7012878e+02  -4.8808119e+02  -5.2512336e+02  -5.7851177e+02  -6.3944977e+02  -6.9972945e+02  -7.4669780e+02  -7.7190877e+02  -7.6788798e+02  -7.3463019e+02  -6.7772285e+02  -6.1128744e+02  -5.4718636e+02  -5.0210111e+02  -4.8511327e+02  -4.9830842e+02  -5.3669785e+02  -5.9046387e+02  -6.4424501e+02  -6.8595115e+02  -7.0848380e+02  -7.0976018e+02  -6.9059511e+02  -6.5424811e+02  -6.0673836e+02  -5.5930349e+02  -5.2656779e+02  -5.2205156e+02  -5.5457932e+02  -6.1994807e+02  -6.9893978e+02  -7.7046651e+02  -8.1138468e+02  -8.1336673e+02  -7.8020080e+02  -7.2201196e+02  -6.5313124e+02  -5.8363194e+02  -5.2084336e+02  -4.7337447e+02  -4.4828743e+02  -4.5202922e+02  -4.8556456e+02  -5.4089289e+02  -6.0583133e+02  -6.6567114e+02  -7.1012685e+02  -7.3193588e+02  -7.2954563e+02  -7.0252722e+02  -6.5563545e+02  -5.9873204e+02  -5.4503850e+02  -5.1033133e+02  -5.0770329e+02  -5.3738878e+02  -5.8791544e+02  -6.4255034e+02  -6.8372231e+02  -7.0188467e+02  -6.9518313e+02  -6.6933429e+02  -6.2829086e+02  -5.8153590e+02  -5.3214777e+02  -4.8904955e+02  -4.5703640e+02  -4.4022660e+02  -4.3649250e+02  -4.4121609e+02  -4.4542712e+02  -4.3808179e+02  -4.1099222e+02  -3.5577563e+02  -2.6918926e+02  -1.5535030e+02  -2.1584228e+01   1.1405615e+02   2.3627052e+02   3.2944176e+02   3.8337473e+02   3.9724457e+02   3.7433230e+02   3.2239355e+02   2.5580826e+02   1.9092708e+02   1.4420767e+02   1.3078004e+02   1.5398471e+02   2.0121350e+02   2.5309449e+02   2.8276480e+02   2.7173407e+02   2.1170753e+02   1.0474381e+02  -4.3734372e+01  -2.2030920e+02  -4.1124839e+02  -5.9414093e+02  -7.3992286e+02  -8.2163935e+02  -8.2234536e+02  -7.4273255e+02  -6.0934598e+02  -4.5855964e+02  -3.2674943e+02  -2.3627497e+02  -1.9092215e+02  -1.8335571e+02  -1.9890967e+02  -2.2775054e+02  -2.6214831e+02  -2.9734970e+02  -3.2641790e+02  -3.3941326e+02  -3.3043679e+02  -2.9630993e+02  -2.4596648e+02  -1.9291665e+02  -1.5334903e+02  -1.4151712e+02  -1.6299476e+02  -2.1419493e+02  -2.8426731e+02  -3.5318671e+02  -4.0358001e+02  -4.2167443e+02  -4.0271986e+02  -3.5134965e+02  -2.7957383e+02  -2.0139622e+02  -1.2734674e+02  -6.6457260e+01  -2.5331932e+01  -8.9431040e+00  -2.2627458e+01  -6.3496170e+01  -1.2016667e+02  -1.7643652e+02  -2.1331673e+02  -2.1976587e+02  -1.9753374e+02  -1.5172043e+02  -9.6939360e+01  -4.1278468e+01   9.4825428e+00   4.8779662e+01   7.1651907e+01   7.4079745e+01   5.3978680e+01   1.5849779e+01  -2.4613700e+01  -5.0432859e+01  -4.7116669e+01  -8.6838246e+00   5.8522249e+01   1.4241624e+02   2.2703515e+02   2.9828531e+02   3.4697717e+02   3.6448701e+02   3.4646285e+02   2.9719795e+02   2.2558372e+02   1.4986288e+02   8.9664490e+01   6.1958794e+01   7.1587539e+01   1.1289975e+02   1.7478238e+02   2.4407174e+02   3.1103138e+02   3.7135173e+02   4.2001466e+02   4.5039959e+02   4.5617564e+02   4.3479281e+02   3.9469393e+02   3.5164989e+02   3.2581360e+02   3.3214895e+02   3.7280760e+02   4.3681696e+02   5.0615240e+02   5.6596045e+02   6.0644419e+02   6.2477375e+02   6.2037614e+02   5.9209278e+02   5.4293907e+02   4.7850637e+02   4.1234438e+02   3.6388682e+02   3.4958549e+02   3.7487519e+02   4.3641308e+02   5.1976011e+02   6.0735953e+02   6.8438574e+02   7.3984852e+02   7.7028317e+02   7.7344829e+02   7.4967054e+02   7.0677128e+02   6.5381874e+02   6.0420518e+02   5.7469367e+02   5.7208277e+02   6.0099967e+02   6.5208160e+02   7.1449920e+02   7.7147858e+02   8.0925914e+02   8.2182713e+02   8.0681449e+02   7.7013620e+02   7.1921721e+02   6.6797184e+02   6.2597459e+02   6.0644228e+02   6.1369154e+02   6.5263569e+02   7.1865894e+02   7.9890690e+02   8.7772273e+02   9.3570716e+02   9.6174340e+02   9.5233349e+02   9.1274126e+02   8.5669558e+02   7.9672011e+02   7.4145311e+02   6.9854002e+02   6.7177187e+02   6.6908741e+02   6.9186595e+02   7.3765503e+02   7.9616239e+02   8.5106623e+02   8.8601923e+02   8.9218216e+02   8.7072809e+02   8.3098691e+02   7.8720071e+02   7.5216812e+02   7.3430157e+02   7.3575234e+02   7.5724480e+02   7.9710643e+02   8.5171782e+02   9.1329444e+02   9.6861805e+02   1.0041248e+03   1.0086750e+03   9.7939729e+02   9.2119665e+02   8.4580920e+02   7.6859962e+02   7.0457297e+02   6.6524364e+02   6.5403598e+02   6.7277591e+02   7.1359541e+02   7.6926549e+02   8.2666170e+02   8.7382287e+02   8.9993482e+02   8.9859132e+02   8.7184439e+02   8.2382319e+02   7.6901614e+02   7.1860297e+02   6.8243292e+02   6.6732045e+02   6.7225932e+02   6.9495200e+02   7.2876039e+02   7.6186920e+02   7.8218477e+02   7.7832739e+02   7.4305246e+02   6.7755920e+02   5.9138765e+02   5.0191480e+02   4.2376752e+02   3.7071038e+02   3.4668270e+02   3.5163066e+02   3.7960884e+02   4.2335095e+02   4.7319055e+02   5.1891950e+02   5.4796793e+02   5.5222038e+02   5.2586225e+02   4.6886306e+02   3.9099976e+02   3.0464164e+02   2.2378721e+02   1.6300463e+02   1.2994539e+02   1.2697290e+02   1.4920022e+02   1.8392063e+02   2.1610767e+02   2.3042560e+02   2.2007954e+02   1.8286966e+02   1.2598981e+02   6.0388048e+01  -6.1757584e+00  -6.5951091e+01  -1.1027712e+02  -1.3324240e+02  -1.2833307e+02  -9.2698578e+01  -3.2964829e+01   3.5157421e+01   8.9956648e+01   1.1483183e+02   9.8757221e+01   4.6566249e+01  -3.0224804e+01  -1.1801527e+02  -2.0179455e+02  -2.7231321e+02  -3.2106454e+02  -3.4143374e+02  -3.3055469e+02  -2.9169763e+02  -2.3433203e+02  -1.7729805e+02  -1.3871299e+02  -1.3129521e+02  -1.5769352e+02  -2.0718685e+02  -2.6481618e+02  -3.1669347e+02  -3.5297313e+02  -3.7282382e+02  -3.7373803e+02  -3.5566185e+02  -3.1968645e+02  -2.7135980e+02  -2.2098210e+02  -1.8347367e+02  -1.7450166e+02  -2.0049820e+02  -2.5901076e+02  -3.3753600e+02  -4.1766527e+02  -4.8508342e+02  -5.2777570e+02  -5.4275103e+02  -5.2669414e+02  -4.8519188e+02  -4.2548766e+02  -3.5903872e+02  -3.0140919e+02  -2.6617513e+02  -2.6051282e+02  -2.8398958e+02  -3.2881210e+02  -3.8346664e+02  -4.3538126e+02  -4.7401646e+02  -4.9269882e+02  -4.8756999e+02  -4.6022058e+02  -4.1586861e+02  -3.6326523e+02  -3.1879137e+02  -2.9538931e+02  -3.0501183e+02  -3.4815894e+02  -4.1783520e+02  -4.9594819e+02  -5.6385246e+02  -6.0648910e+02  -6.1843861e+02  -6.0021982e+02  -5.5732999e+02  -4.9679337e+02  -4.2730982e+02  -3.5939946e+02  -3.0615794e+02  -2.7832169e+02  -2.8327513e+02  -3.2042629e+02  -3.7907948e+02  -4.4660814e+02  -5.0644812e+02  -5.4925560e+02  -5.6953980e+02  -5.6719903e+02  -5.4263070e+02  -5.0340081e+02  -4.5777445e+02  -4.2266011e+02  -4.0964730e+02  -4.2879740e+02  -4.7567916e+02  -5.3786672e+02  -5.9679353e+02  -6.3855591e+02  -6.5204845e+02  -6.3773771e+02  -5.9945743e+02  -5.4182108e+02  -4.7414936e+02  -4.0613574e+02  -3.4875029e+02  -3.1305126e+02  -3.0759593e+02  -3.3501470e+02  -3.8906004e+02  -4.5912281e+02  -5.2988885e+02  -5.8656225e+02  -6.1695869e+02  -6.1280197e+02  -5.7673168e+02  -5.1681166e+02  -4.4965642e+02  -3.9259330e+02  -3.5748758e+02  -3.5092874e+02  -3.6939393e+02  -4.0478833e+02  -4.4745707e+02  -4.8543896e+02  -5.1045860e+02  -5.1598995e+02  -4.9870882e+02  -4.5778609e+02  -4.0072859e+02  -3.4079479e+02  -2.9232788e+02  -2.6758872e+02  -2.7178437e+02  -3.0494838e+02  -3.5814463e+02  -4.2217990e+02  -4.8667970e+02  -5.4508499e+02  -5.8892429e+02  -6.1165468e+02  -6.0745692e+02  -5.7359683e+02  -5.1427616e+02  -4.4222381e+02  -3.7355158e+02  -3.2855723e+02  -3.1916665e+02  -3.4756610e+02  -4.0331330e+02  -4.6889235e+02  -5.2636163e+02  -5.6250549e+02  -5.7379214e+02  -5.6048502e+02  -5.2744315e+02  -4.8243603e+02  -4.3112716e+02  -3.8217481e+02  -3.4709400e+02  -3.3957808e+02  -3.6687818e+02  -4.2760746e+02  -5.1102359e+02  -5.9451759e+02  -6.5477013e+02  -6.7588706e+02  -6.5082731e+02  -5.8458789e+02  -4.9488013e+02  -4.0035927e+02  -3.2178496e+02  -2.7172303e+02  -2.5550023e+02  -2.7406802e+02  -3.1923475e+02  -3.8242756e+02  -4.4981265e+02  -5.0930844e+02  -5.4883247e+02  -5.6107523e+02  -5.4619976e+02  -5.0710292e+02  -4.5619165e+02  -4.0495245e+02  -3.6485792e+02  -3.4529785e+02  -3.5121614e+02  -3.7897766e+02  -4.2471771e+02  -4.7609800e+02  -5.2108288e+02  -5.4612195e+02  -5.4203424e+02  -5.0695179e+02  -4.4688551e+02  -3.7277737e+02  -2.9723526e+02  -2.3643683e+02  -2.0087257e+02  -1.9563713e+02  -2.2086007e+02  -2.7362159e+02  -3.4437599e+02  -4.2257820e+02  -4.9294731e+02  -5.4166246e+02  -5.5580211e+02  -5.3150319e+02  -4.7159565e+02  -3.9080107e+02  -3.0989560e+02  -2.5046245e+02  -2.2294608e+02  -2.3165158e+02  -2.6812258e+02  -3.1602690e+02  -3.6234708e+02  -3.9538491e+02  -4.0991098e+02  -4.0675820e+02  -3.8828091e+02  -3.5935199e+02  -3.2789246e+02  -3.0125280e+02  -2.8902024e+02  -2.9795464e+02  -3.3073110e+02  -3.8099279e+02  -4.3893230e+02  -4.8828590e+02  -5.1431547e+02  -5.0213532e+02  -4.4566433e+02  -3.4456258e+02  -2.0773222e+02  -4.9273048e+01   1.1088080e+02   2.5013058e+02   3.5250253e+02   4.0734556e+02   4.1385679e+02   3.8111136e+02   3.2160019e+02   2.5360567e+02   1.9299758e+02   1.5115677e+02   1.3570352e+02   1.5052824e+02   1.8833382e+02   2.3956588e+02   2.8629925e+02   3.1143929e+02   2.9952487e+02   2.4050803e+02   1.3610919e+02  -5.3395039e+00  -1.6931673e+02  -3.3027407e+02  -4.6484697e+02  -5.4740865e+02  -5.6140305e+02  -5.0615669e+02  -3.9820109e+02  -2.6646194e+02  -1.4291938e+02  -5.4460264e+01  -1.1601897e+01  -1.2578743e+01  -4.4986457e+01  -9.2839996e+01  -1.4259520e+02  -1.8347515e+02  -2.0437841e+02  -1.9874001e+02  -1.6394686e+02  -1.0522700e+02  -3.9266836e+01   1.4911789e+01   4.2121132e+01   3.7522185e+01   6.9284938e+00  -3.6388542e+01  -8.0349452e+01  -1.1480605e+02  -1.3576378e+02  -1.3837182e+02  -1.2001562e+02  -7.7041402e+01  -1.2942957e+01   6.3822280e+01   1.3491767e+02   1.8244324e+02   1.9075940e+02   1.5720005e+02   8.9296448e+01   5.4566465e+00  -7.4618567e+01  -1.3122717e+02  -1.5595494e+02  -1.4325205e+02  -9.8743544e+01  -3.3995082e+01   3.7207932e+01   1.0368634e+02   1.5517760e+02   1.8640657e+02   1.9424758e+02   1.7851068e+02   1.4518788e+02   1.0133440e+02   6.2059942e+01   4.0299549e+01   4.7082065e+01   8.5903183e+01   1.4856625e+02   2.1852986e+02   2.7946813e+02   3.2148035e+02   3.3624178e+02   3.2539764e+02   2.9266544e+02   2.4339345e+02   1.8665995e+02   1.3431879e+02   9.9628661e+01   9.6197111e+01   1.3390379e+02   2.0625620e+02   3.0232082e+02   4.0202922e+02   4.8336131e+02   5.3371694e+02   5.4974725e+02   5.3303605e+02   4.9427391e+02   4.4289583e+02   3.9248979e+02   3.5354943e+02   3.3628649e+02   3.4720200e+02   3.8694658e+02   4.4971524e+02   5.2108298e+02   5.8487035e+02   6.2440056e+02   6.3042372e+02   6.0405631e+02   5.5330129e+02   4.9502636e+02   4.4261868e+02   4.0582681e+02   3.9348241e+02   4.0782295e+02   4.5000897e+02   5.1916920e+02   6.0697431e+02   7.0040608e+02   7.7812642e+02   8.2271877e+02   8.2310017e+02   7.8158191e+02   7.1334994e+02   6.4147942e+02   5.8391611e+02   5.5208111e+02   5.4683556e+02   5.6346117e+02   5.9708907e+02   6.4569144e+02   7.0440836e+02   7.6569098e+02   8.1656460e+02   8.4029108e+02   8.2784460e+02   7.8387671e+02   7.2218120e+02   6.6600040e+02   6.3777122e+02   6.4703315e+02   6.9218725e+02   7.6060802e+02   8.3731374e+02   9.0705779e+02   9.5939002e+02   9.8802219e+02   9.8676121e+02   9.5536637e+02   8.9591824e+02   8.1961126e+02   7.4022484e+02   6.7681646e+02   6.4234978e+02   6.4598626e+02   6.8462382e+02   7.5099539e+02   8.3030019e+02   9.0600809e+02   9.6322270e+02   9.8786926e+02   9.7901476e+02   9.4181899e+02   8.8991787e+02   8.3838403e+02   8.0072226e+02   7.7956804e+02   7.7482199e+02   7.8385479e+02   8.0818133e+02   8.4767715e+02   8.9807038e+02   9.4915910e+02   9.8104279e+02   9.7365128e+02   9.2200622e+02   8.3392732e+02   7.3623661e+02   6.5684343e+02   6.1734067e+02   6.2085174e+02   6.5881625e+02   7.1619916e+02   7.7729994e+02   8.3399023e+02   8.8089776e+02   9.1284890e+02   9.2282619e+02   9.0380360e+02   8.5206759e+02   7.7296206e+02   6.8133920e+02   5.9727892e+02   5.3979768e+02   5.1926668e+02   5.3610186e+02   5.7800627e+02   6.2770405e+02   6.6577621e+02   6.7896629e+02   6.6322117e+02   6.2279037e+02   5.6391527e+02   4.9895079e+02   4.3310748e+02   3.7530813e+02   3.3084929e+02   3.0960454e+02   3.1838953e+02   3.6185729e+02   4.3095719e+02   5.0664991e+02   5.6329393e+02   5.8097159e+02   5.5003267e+02   4.7630359e+02   3.7869858e+02   2.8031704e+02   1.9544006e+02   1.3607758e+02   1.0381417e+02   1.0063491e+02   1.2519696e+02   1.6969629e+02   2.2413026e+02   2.6945168e+02   2.8791799e+02   2.6989707e+02   2.1651424e+02   1.4078106e+02   6.4181837e+01   2.0345373e+00  -3.3786819e+01  -4.1040099e+01  -2.5503752e+01   7.9679524e+00   4.9963925e+01   8.9504256e+01   1.1606722e+02   1.2199492e+02   9.8531021e+01   4.8821767e+01  -2.3564838e+01  -1.0772365e+02  -1.9187384e+02  -2.6366860e+02  -3.1363927e+02  -3.3502907e+02  -3.2240428e+02  -2.7969607e+02  -2.1566709e+02  -1.4914007e+02  -9.5592818e+01  -7.1861947e+01  -8.1669633e+01  -1.2350759e+02  -1.8611217e+02  -2.5441676e+02  -3.1654321e+02  -3.6116761e+02  -3.8251551e+02  -3.7732426e+02  -3.4933977e+02  -3.0423806e+02  -2.5321088e+02  -2.1374928e+02  -1.9833772e+02  -2.1879282e+02  -2.7484042e+02  -3.5525412e+02  -4.4453558e+02  -5.2177759e+02  -5.7308991e+02  -5.8884153e+02  -5.6801046e+02  -5.1612467e+02  -4.4458287e+02  -3.6749732e+02  -2.9852153e+02  -2.5234802e+02  -2.4063226e+02  -2.6600652e+02  -3.2660966e+02  -4.0622804e+02  -4.8779275e+02  -5.5368300e+02  -5.9011194e+02  -5.9385598e+02  -5.6873441e+02  -5.2652282e+02  -4.8032795e+02  -4.4379038e+02  -4.2373813e+02  -4.2303469e+02  -4.4432103e+02  -4.8015354e+02  -5.2673208e+02  -5.7506047e+02  -6.1406570e+02  -6.3698852e+02  -6.3429616e+02  -6.0447021e+02  -5.4826762e+02  -4.7438643e+02  -3.9681757e+02  -3.3145277e+02  -2.9368355e+02  -2.9473063e+02  -3.3628548e+02  -4.0976201e+02  -4.9910596e+02  -5.8477110e+02  -6.4721802e+02  -6.7417830e+02  -6.6397914e+02  -6.2142940e+02  -5.5908289e+02  -4.9404898e+02  -4.3983676e+02  -4.0392903e+02  -3.9383884e+02  -4.0829238e+02  -4.4493366e+02  -4.9460925e+02  -5.4694427e+02  -5.8763529e+02  -6.0472855e+02  -5.9215449e+02  -5.4695303e+02  -4.7691283e+02  -3.9669655e+02  -3.2285901e+02  -2.7241068e+02  -2.5768111e+02  -2.8117497e+02  -3.3689770e+02  -4.1330824e+02  -4.9370069e+02  -5.5850419e+02  -5.9478862e+02  -5.9221712e+02  -5.4980572e+02  -4.7310932e+02  -3.7579498e+02  -2.7791428e+02  -1.9846841e+02  -1.5101256e+02  -1.4403566e+02  -1.7467977e+02  -2.3006990e+02  -2.9617196e+02  -3.5576175e+02  -3.9584710e+02  -4.0778643e+02  -3.8841680e+02  -3.4272389e+02  -2.7890834e+02  -2.1005734e+02  -1.5293814e+02  -1.2062478e+02  -1.2470718e+02  -1.6570499e+02  -2.3604441e+02  -3.1861274e+02  -3.9355825e+02  -4.4272726e+02  -4.5598828e+02  -4.3271435e+02  -3.7887645e+02  -3.0850233e+02  -2.3361061e+02  -1.6906346e+02  -1.2401608e+02  -1.0973087e+02  -1.2944380e+02  -1.8274293e+02  -2.6458870e+02  -3.5874879e+02  -4.4711346e+02  -5.1316649e+02  -5.4385569e+02  -5.3624043e+02  -4.9756387e+02  -4.3974318e+02  -3.8061913e+02  -3.3557740e+02  -3.1529130e+02  -3.2330724e+02  -3.5800795e+02  -4.1018352e+02  -4.7108598e+02  -5.2651443e+02  -5.6324988e+02  -5.7007947e+02  -5.3873779e+02  -4.7332985e+02  -3.8613114e+02  -3.0101819e+02  -2.3808267e+02  -2.1216466e+02  -2.2605998e+02  -2.7301219e+02  -3.3982139e+02  -4.1355035e+02  -4.8246112e+02  -5.3754761e+02  -5.6989991e+02  -5.6917403e+02  -5.3363586e+02  -4.6955959e+02  -3.9111990e+02  -3.2124507e+02  -2.7812319e+02  -2.7012729e+02  -2.9583092e+02  -3.4054377e+02  -3.9046235e+02  -4.3217448e+02  -4.5695921e+02  -4.6214884e+02  -4.4480604e+02  -4.0612102e+02  -3.4821488e+02  -2.8038752e+02  -2.1419148e+02  -1.6697373e+02  -1.5264657e+02  -1.7640169e+02  -2.3387679e+02  -3.1196748e+02  -3.8911738e+02  -4.4859571e+02  -4.7905354e+02  -4.7658795e+02  -4.4264828e+02  -3.8537008e+02  -3.1226333e+02  -2.3354022e+02  -1.6166216e+02  -1.1185546e+02  -9.5349914e+01  -1.1693554e+02  -1.7214359e+02  -2.4300241e+02  -3.0897526e+02  -3.4942923e+02  -3.5587072e+02  -3.3223629e+02  -2.8873720e+02  -2.3907611e+02  -1.9621285e+02  -1.6917667e+02  -1.6463272e+02  -1.8596534e+02  -2.2952774e+02  -2.8945153e+02  -3.5006637e+02  -3.9262542e+02  -3.9774312e+02  -3.5279337e+02  -2.5552122e+02  -1.1229107e+02   6.1309364e+01   2.4443205e+02   4.1407867e+02   5.5068715e+02   6.3741890e+02   6.7143580e+02   6.5767451e+02   6.1195354e+02   5.5161030e+02   4.9318538e+02   4.4887683e+02   4.2553576e+02   4.2585361e+02   4.5012923e+02   4.9565703e+02   5.5442186e+02   6.1050111e+02   6.4242028e+02   6.3172072e+02   5.7017261e+02   4.6036593e+02   3.1977055e+02   1.6869405e+02   2.6810876e+01  -9.1968531e+01  -1.7859242e+02  -2.2745672e+02  -2.3534883e+02  -2.0396803e+02  -1.4155804e+02  -6.4384083e+01   6.1765164e+00   4.8292061e+01   5.3716478e+01   2.7196385e+01  -1.3413514e+01  -4.5704437e+01  -5.0168431e+01  -1.8807546e+01   4.4665050e+01   1.2628692e+02   2.0686410e+02   2.7409883e+02   3.2014073e+02   3.4678510e+02   3.5362127e+02   3.4266696e+02   3.1735752e+02   2.7912075e+02   2.3807891e+02   2.1061011e+02   2.1253183e+02   2.5353144e+02   3.2919331e+02   4.2262021e+02   5.0829381e+02   5.6354556e+02   5.7687205e+02   5.5136107e+02   5.0168731e+02   4.4344921e+02   3.9098168e+02   3.4911355e+02   3.2357172e+02   3.1781280e+02   3.3797231e+02   3.8837954e+02   4.6774567e+02   5.6676936e+02   6.6559545e+02   7.4137746e+02   7.7617297e+02   7.6154734e+02   7.0554451e+02   6.2603975e+02   5.4684305e+02   4.9019283e+02   4.7341155e+02   4.9945611e+02   5.6089789e+02   6.4155112e+02   7.2260502e+02   7.8478425e+02   8.1583511e+02   8.1256381e+02   7.7775079e+02   7.2151311e+02   6.5702793e+02   5.9589194e+02   5.5169331e+02   5.3554756e+02   5.5336004e+02   6.0742142e+02   6.9065164e+02   7.8744937e+02   8.7775193e+02   9.4164591e+02   9.6874670e+02   9.5561426e+02   9.0968156e+02   8.4449519e+02   7.7243471e+02   7.0640826e+02   6.5724311e+02   6.3555526e+02   6.4577501e+02   6.8975183e+02   7.6001516e+02   8.3740526e+02   9.0348977e+02   9.4000994e+02   9.3759709e+02   9.0116150e+02   8.4464984e+02   7.8522699e+02   7.4128646e+02   7.2095146e+02   7.2784307e+02   7.6083332e+02   8.1328597e+02   8.7896123e+02   9.4739446e+02   1.0082342e+03   1.0468118e+03   1.0551621e+03   1.0248300e+03   9.5906447e+02   8.7134774e+02   7.7957538e+02   7.0649332e+02   6.6816319e+02   6.7221998e+02   7.1551466e+02   7.8543204e+02   8.6380972e+02   9.3703572e+02   9.9264636e+02   1.0216396e+03   1.0217832e+03   9.9241930e+02   9.3859785e+02   8.7173889e+02   8.0734488e+02   7.6449325e+02   7.5688545e+02   7.8610566e+02   8.4047476e+02   9.0253322e+02   9.5282666e+02   9.7837992e+02   9.7709210e+02   9.5030006e+02   9.0393924e+02   8.4103686e+02   7.6663834e+02   6.8861194e+02   6.2202408e+02   5.8587426e+02   5.9090222e+02   6.3794842e+02   7.1501101e+02   7.9577318e+02   8.5605540e+02   8.7944478e+02   8.6031643e+02   8.0959496e+02   7.3987892e+02   6.6390950e+02   5.8972446e+02   5.2612526e+02   4.7623200e+02   4.4888059e+02   4.4842777e+02   4.7522054e+02   5.1961905e+02   5.6712072e+02   5.9489123e+02   5.8891908e+02   5.4209310e+02   4.6174016e+02   3.6449954e+02   2.7477721e+02   2.0933707e+02   1.7877903e+02   1.8267981e+02   2.1503092e+02   2.6832474e+02   3.3028007e+02   3.8983974e+02   4.3479305e+02   4.4923791e+02   4.2613119e+02   3.6337168e+02   2.7218061e+02   1.6791335e+02   7.1778247e+01  -8.2514630e-01  -4.1553859e+01  -4.7253073e+01  -2.4514318e+01   2.0452809e+01   7.4379005e+01   1.2335622e+02   1.5436611e+02   1.5513968e+02   1.2272118e+02   6.4395304e+01  -7.0019593e+00  -7.3011943e+01  -1.1907154e+02  -1.3384036e+02  -1.1659815e+02  -6.9176762e+01  -2.2144608e+00   7.1111924e+01   1.3138439e+02   1.6455091e+02   1.5705076e+02   1.0877039e+02   2.6394519e+01  -7.1932009e+01  -1.6734837e+02  -2.3983658e+02  -2.7682552e+02  -2.7505948e+02  -2.3711044e+02  -1.7520823e+02  -1.0142867e+02  -3.0637314e+01   2.2143992e+01   5.0156346e+01   4.6365994e+01   1.3438762e+01  -4.2978003e+01  -1.1049864e+02  -1.7426706e+02  -2.1852479e+02  -2.3269051e+02  -2.1527163e+02  -1.6918640e+02  -1.0842645e+02  -4.8355072e+01  -7.2391285e+00   4.2187889e+00  -1.8421398e+01  -7.4009638e+01  -1.5014953e+02  -2.3314839e+02  -3.0815389e+02  -3.5979663e+02  -3.7954423e+02  -3.6403285e+02  -3.1586347e+02  -2.4568390e+02  -1.6775071e+02  -9.7496666e+01  -4.9846206e+01  -3.4076131e+01  -5.3899972e+01  -1.0218716e+02  -1.7137211e+02  -2.4623942e+02  -3.1547337e+02  -3.6619367e+02  -3.8770638e+02  -3.7487189e+02  -3.2979749e+02  -2.6193047e+02  -1.8797877e+02  -1.3234369e+02  -1.1185506e+02  -1.3753290e+02  -2.0487162e+02  -2.9780857e+02  -3.9116565e+02  -4.6002829e+02  -4.8731755e+02  -4.6876630e+02  -4.1063922e+02  -3.2981037e+02  -2.4617080e+02  -1.7770546e+02  -1.3687063e+02  -1.2605825e+02  -1.4491688e+02  -1.8811347e+02  -2.5080768e+02  -3.2873779e+02  -4.1146622e+02  -4.8308154e+02  -5.2755422e+02  -5.3002057e+02  -4.8850407e+02  -4.1392504e+02  -3.2962314e+02  -2.6194191e+02  -2.2762718e+02  -2.3183042e+02  -2.6637224e+02  -3.1964322e+02  -3.8015798e+02  -4.3741421e+02  -4.8242168e+02  -5.0711809e+02  -4.9991383e+02  -4.5679908e+02  -3.8276305e+02  -2.9564671e+02  -2.1889641e+02  -1.7592912e+02  -1.8090784e+02  -2.3363886e+02  -3.1905847e+02  -4.1543076e+02  -5.0200363e+02  -5.5955118e+02  -5.8303604e+02  -5.6959715e+02  -5.2621505e+02  -4.6069353e+02  -3.8396346e+02  -3.0907879e+02  -2.4755943e+02  -2.1387632e+02  -2.1384093e+02  -2.5046264e+02  -3.1551457e+02  -3.9467499e+02  -4.6776607e+02  -5.1437355e+02  -5.2504846e+02  -4.9638620e+02  -4.3652681e+02  -3.6296837e+02  -2.9295783e+02  -2.4103755e+02  -2.1851218e+02  -2.2661947e+02  -2.6503494e+02  -3.2504733e+02  -3.9537530e+02  -4.6323420e+02  -5.1098570e+02  -5.2657291e+02  -5.0098729e+02  -4.3722410e+02  -3.4551030e+02  -2.4496706e+02  -1.5520917e+02  -9.0617112e+01  -6.0088584e+01  -6.4972522e+01  -1.0263085e+02  -1.6571846e+02  -2.4189805e+02  -3.1639445e+02  -3.6961150e+02  -3.8702369e+02  -3.6271496e+02  -3.0223567e+02  -2.2281788e+02  -1.4734944e+02  -9.2778927e+01  -6.9747631e+01  -8.1193293e+01  -1.1945534e+02  -1.7508043e+02  -2.3615161e+02  -2.8662791e+02  -3.1295797e+02  -3.0516833e+02  -2.6174110e+02  -1.9085972e+02  -1.0895909e+02  -3.3888307e+01   1.7700100e+01   3.3949572e+01   1.0602424e+01  -5.0607026e+01  -1.3927592e+02  -2.4130671e+02  -3.3810524e+02  -4.0931069e+02  -4.4024956e+02  -4.2736629e+02  -3.7910715e+02  -3.1207209e+02  -2.4362693e+02  -1.9150363e+02  -1.6513593e+02  -1.6753300e+02  -1.9937359e+02  -2.5373299e+02  -3.2449656e+02  -3.9914093e+02  -4.6126512e+02  -4.9608810e+02  -4.9313743e+02  -4.5353203e+02  -3.8857150e+02  -3.1971800e+02  -2.6741105e+02  -2.4441446e+02  -2.5549944e+02  -2.9719667e+02  -3.6011790e+02  -4.3200493e+02  -5.0528624e+02  -5.7059041e+02  -6.1545558e+02  -6.2942935e+02  -6.0388469e+02  -5.4015678e+02  -4.4897024e+02  -3.4649884e+02  -2.5569683e+02  -1.9369840e+02  -1.6906623e+02  -1.8148239e+02  -2.2215937e+02  -2.7687224e+02  -3.3015909e+02  -3.6698257e+02  -3.7204612e+02  -3.4003709e+02  -2.7130568e+02  -1.8183461e+02  -9.2730325e+01  -2.5793121e+01   5.0737920e+00  -4.1801972e+00  -4.4089744e+01  -1.0067615e+02  -1.6012233e+02  -2.1075899e+02  -2.4471083e+02  -2.5340434e+02  -2.3216664e+02  -1.7834100e+02  -9.6667846e+01  -3.0582927e+00   8.3761745e+01   1.4201089e+02   1.6020105e+02   1.3834939e+02   8.4575242e+01   1.3955225e+01  -5.6111231e+01  -1.1444975e+02  -1.4979812e+02  -1.5783083e+02  -1.3786532e+02  -9.4884843e+01  -3.5881865e+01   2.3105577e+01   7.0607362e+01   9.2184986e+01   8.1981726e+01   3.8796719e+01  -2.7552889e+01  -1.0044064e+02  -1.5972216e+02  -1.8238173e+02  -1.5272741e+02  -6.6425142e+01   6.8083464e+01   2.3188047e+02   4.0031198e+02   5.5457581e+02   6.8037488e+02   7.7083807e+02   8.2306780e+02   8.3597209e+02   8.1341242e+02   7.6506538e+02   7.0767718e+02   6.6352194e+02   6.5383066e+02   6.8774518e+02   7.6001979e+02   8.5031085e+02   9.3055007e+02   9.7966152e+02   9.8580944e+02   9.5046970e+02   8.8487662e+02   7.9975517e+02   7.0362517e+02   6.0227703e+02   5.0020044e+02   4.0575660e+02   3.2472014e+02   2.6351535e+02   2.2309727e+02   1.9806573e+02   1.7932729e+02   1.6149797e+02   1.4029380e+02   1.1937721e+02   1.0146388e+02   9.2876590e+01   9.9072590e+01   1.2089775e+02   1.6138262e+02   2.2177833e+02   3.0026224e+02   3.9037924e+02   4.8090708e+02   5.5552433e+02   6.0048510e+02   6.0850417e+02   5.8322974e+02   5.3298983e+02   4.7587629e+02   4.2659222e+02   3.9675871e+02   3.9149205e+02   4.1200182e+02   4.5273324e+02   5.0823749e+02   5.6657238e+02   6.1969989e+02   6.5612650e+02   6.6798005e+02   6.5483986e+02   6.1691103e+02   5.6349903e+02   5.0711422e+02   4.6283940e+02   4.4775729e+02   4.7122401e+02   5.3259223e+02   6.2167132e+02   7.1983268e+02   8.0430863e+02   8.5897127e+02   8.7577194e+02   8.5609436e+02   8.0851096e+02   7.4377888e+02   6.7529608e+02   6.1157172e+02   5.6348007e+02   5.4211157e+02   5.5390298e+02   6.0044772e+02   6.7401858e+02   7.5946101e+02   8.3381507e+02   8.7786703e+02   8.8084796e+02   8.4468654e+02   7.8254226e+02   7.1572428e+02   6.6645744e+02   6.4921087e+02   6.6940241e+02   7.2221006e+02   7.9497922e+02   8.7336434e+02   9.4696202e+02   1.0028642e+03   1.0363558e+03   1.0419478e+03   1.0140779e+03   9.5710310e+02   8.7957778e+02   7.9718731e+02   7.3199929e+02   6.9984456e+02   7.1261231e+02   7.6504379e+02   8.4328336e+02   9.2806191e+02   1.0000327e+03   1.0455296e+03   1.0589277e+03   1.0408746e+03   9.9791117e+02   9.3835397e+02   8.7369254e+02   8.1608112e+02   7.7570179e+02   7.6280275e+02   7.8106633e+02   8.2866755e+02   8.9301135e+02   9.5976650e+02   1.0075272e+03   1.0212943e+03   9.9600607e+02   9.3455325e+02   8.5204930e+02   7.6650412e+02   6.9740430e+02   6.5594188e+02   6.4971384e+02   6.7761318e+02   7.3437446e+02   8.0987615e+02   8.8792017e+02   9.5388654e+02   9.9247092e+02   9.9369534e+02   9.5554123e+02   8.8485543e+02   7.9655691e+02   7.0754193e+02   6.3496955e+02   5.9274164e+02   5.8694737e+02   6.1682825e+02   6.7148471e+02   7.3316219e+02   7.8260711e+02   8.0174885e+02   7.8089180e+02   7.2271038e+02   6.3960284e+02   5.4932185e+02   4.6917919e+02   4.0943704e+02   3.7767914e+02   3.7296147e+02   3.9537395e+02   4.4033613e+02   4.9957180e+02   5.5933870e+02   6.0221497e+02   6.1161975e+02   5.7930259e+02   5.0825938e+02   4.0987521e+02   3.0448045e+02   2.0885141e+02   1.3841689e+02   9.8993604e+01   9.1758010e+01   1.1388930e+02   1.5795351e+02   2.1171759e+02   2.5977026e+02   2.8815202e+02   2.8419610e+02   2.4395811e+02   1.7392306e+02   8.7058366e+01   2.6458506e+00  -5.9405376e+01  -8.4948659e+01  -7.0940247e+01  -2.2208938e+01   4.4521208e+01   1.0914732e+02   1.5669577e+02   1.7405471e+02   1.5911251e+02   1.1361075e+02   4.0300275e+01  -4.9641336e+01  -1.4559301e+02  -2.2922939e+02  -2.8320619e+02  -2.9499198e+02  -2.6123291e+02  -1.9535601e+02  -1.1650022e+02  -4.8228949e+01  -6.7417649e+00   5.8882180e-01  -2.1396636e+01  -6.7851131e+01  -1.2788532e+02  -1.9306948e+02  -2.5191646e+02  -2.9257536e+02  -3.0392050e+02  -2.8235515e+02  -2.3093261e+02  -1.6276912e+02  -9.8098853e+01  -5.6621642e+01  -4.8950383e+01  -7.9945230e+01  -1.4152699e+02  -2.2423955e+02  -3.1244580e+02  -3.9068336e+02  -4.4345031e+02  -4.6059410e+02  -4.3556187e+02  -3.7201724e+02  -2.8268371e+02  -1.8966208e+02  -1.1580142e+02  -7.7910193e+01  -8.5628687e+01  -1.3463925e+02  -2.1059932e+02  -2.9580571e+02  -3.7322179e+02  -4.3020232e+02  -4.6110091e+02  -4.6197218e+02  -4.3478196e+02  -3.8286688e+02  -3.1676978e+02  -2.5093366e+02  -2.0398738e+02  -1.9344491e+02  -2.2654839e+02  -2.9573308e+02  -3.8483487e+02  -4.6977650e+02  -5.2814274e+02  -5.4885738e+02  -5.3015020e+02  -4.7815671e+02  -4.0479116e+02  -3.2191183e+02  -2.4317150e+02  -1.8523561e+02  -1.6118976e+02  -1.8091994e+02  -2.4403704e+02  -3.3758206e+02  -4.3936034e+02  -5.2439854e+02  -5.7277362e+02  -5.7898303e+02  -5.4812637e+02  -4.9242913e+02  -4.3000202e+02  -3.7111443e+02  -3.2458492e+02  -2.9608250e+02  -2.8915017e+02  -3.0760165e+02  -3.4863864e+02  -4.0565796e+02  -4.6734506e+02  -5.1536816e+02  -5.3485497e+02  -5.1688127e+02  -4.6441860e+02  -3.8852645e+02  -3.0496150e+02  -2.3372522e+02  -1.9130602e+02  -1.8644181e+02  -2.2311707e+02  -2.9423951e+02  -3.8607570e+02  -4.7813951e+02  -5.4890987e+02  -5.8257148e+02  -5.7096614e+02  -5.1511358e+02  -4.2897207e+02  -3.2949194e+02  -2.3738762e+02  -1.6933132e+02  -1.3439719e+02  -1.3952764e+02  -1.7756869e+02  -2.4007752e+02  -3.0971638e+02  -3.6670106e+02  -3.9954198e+02  -3.9725315e+02  -3.6132417e+02  -3.0202207e+02  -2.3195946e+02  -1.6624665e+02  -1.1985794e+02  -1.0201570e+02  -1.1939310e+02  -1.6675704e+02  -2.3735743e+02  -3.1398445e+02  -3.8124962e+02  -4.2237518e+02  -4.3066333e+02  -4.0288412e+02  -3.4505563e+02  -2.6743985e+02  -1.8596749e+02  -1.1364697e+02  -6.4736433e+01  -5.0507998e+01  -7.4305773e+01  -1.3131661e+02  -2.0809901e+02  -2.8753291e+02  -3.5154359e+02  -3.8578608e+02  -3.8648694e+02  -3.5682662e+02  -3.0656713e+02  -2.4801478e+02  -1.9577278e+02  -1.6100353e+02  -1.5202676e+02  -1.7300466e+02  -2.2022536e+02  -2.8514335e+02  -3.5194869e+02  -4.0109899e+02  -4.2003585e+02  -4.0126399e+02  -3.5011125e+02  -2.7877443e+02  -2.0463248e+02  -1.4118837e+02  -9.6302903e+01  -7.4540517e+01  -7.9424694e+01  -1.1420380e+02  -1.7739953e+02  -2.6302218e+02  -3.5397307e+02  -4.2889671e+02  -4.6564660e+02  -4.5261433e+02  -3.9341959e+02  -3.0481732e+02  -2.1006725e+02  -1.3334598e+02  -8.7989651e+01  -7.8389849e+01  -9.9220261e+01  -1.4237771e+02  -1.9664419e+02  -2.4969801e+02  -2.8980596e+02  -3.0637918e+02  -2.8860553e+02  -2.3657500e+02  -1.5764605e+02  -7.0188560e+01   2.8031632e+00   3.9483961e+01   2.7487388e+01  -2.9923809e+01  -1.1736496e+02  -2.1561071e+02  -3.0337809e+02  -3.6801055e+02  -4.0326299e+02  -4.0736489e+02  -3.8169464e+02  -3.2770008e+02  -2.5108247e+02  -1.6563901e+02  -8.7450613e+01  -3.7244262e+01  -3.0718643e+01  -6.9411021e+01  -1.4434525e+02  -2.3531097e+02  -3.1626794e+02  -3.6812441e+02  -3.8105851e+02  -3.5365359e+02  -2.9638128e+02  -2.2432931e+02  -1.5345843e+02  -9.8996226e+01  -7.2765855e+01  -8.1262526e+01  -1.2512686e+02  -1.9735707e+02  -2.8221992e+02  -3.6244670e+02  -4.1601586e+02  -4.3169426e+02  -4.0255828e+02  -3.3493846e+02  -2.4257386e+02  -1.4515408e+02  -6.1778847e+01  -9.1021791e+00   4.0020861e+00  -2.3470241e+01  -8.3261490e+01  -1.6123999e+02  -2.4026272e+02  -3.0388671e+02  -3.4011943e+02  -3.4339172e+02  -3.1410875e+02  -2.5844692e+02  -1.8744968e+02  -1.1484741e+02  -5.8305894e+01  -2.8931271e+01  -3.5802111e+01  -7.7071709e+01  -1.4083775e+02  -2.0958699e+02  -2.6467516e+02  -2.9207386e+02  -2.8555619e+02  -2.4561460e+02  -1.7968269e+02  -9.8603732e+01  -1.8674488e+01   4.8093970e+01   8.4682621e+01   8.2927953e+01   4.1913914e+01  -3.1415675e+01  -1.1934436e+02  -2.0071979e+02  -2.5581651e+02  -2.7288723e+02  -2.4863243e+02  -1.9005524e+02  -1.0752022e+02  -1.9227281e+01   5.7343711e+01   1.0623795e+02   1.1624870e+02   8.4856151e+01   1.9462808e+01  -6.1118822e+01  -1.3758727e+02  -1.8883318e+02  -1.9756630e+02  -1.5908641e+02  -7.2585123e+01   4.8310083e+01   1.9065229e+02   3.3648716e+02   4.6863271e+02   5.7609385e+02   6.4835673e+02   6.8005310e+02   6.7384014e+02   6.3873293e+02   5.9446629e+02   5.6267608e+02   5.6373191e+02   6.0291232e+02   6.7532176e+02   7.5856903e+02   8.3184385e+02   8.7872262e+02   8.9387704e+02   8.7888090e+02   8.3950835e+02   7.7824748e+02   6.9614259e+02   5.9444378e+02   4.8180177e+02   3.6984335e+02   2.6987751e+02   1.8723227e+02   1.2236335e+02   6.8485074e+01   2.2140374e+01  -1.9081119e+01  -5.2499243e+01  -7.6648803e+01  -9.3312095e+01  -1.0627651e+02  -1.1643556e+02  -1.1855464e+02  -1.0387559e+02  -6.0766439e+01   1.1169366e+01   1.0377460e+02   2.0166942e+02   2.8372946e+02   3.3295745e+02   3.4490710e+02   3.2091502e+02   2.6865592e+02   1.9890149e+02   1.2175441e+02   4.9961355e+01  -4.8920953e+00  -3.0476771e+01  -2.0434927e+01   2.4652996e+01   9.7034314e+01   1.7588824e+02   2.4208176e+02   2.7674878e+02   2.6890547e+02   2.2052754e+02   1.4685436e+02   6.6075432e+01   1.9116689e+00  -2.8153501e+01  -1.8159353e+01   2.7258685e+01   9.6469546e+01   1.7421608e+02   2.4645986e+02   3.0308226e+02   3.3463338e+02   3.3530766e+02   2.9749188e+02   2.2454259e+02   1.2483494e+02   2.0503837e+01  -6.4417545e+01  -1.0562348e+02  -9.3139542e+01  -3.1340364e+01   5.9836067e+01   1.5630248e+02   2.3333432e+02   2.7641144e+02   2.7955072e+02   2.4640458e+02   1.8667201e+02   1.1573979e+02   4.7859267e+01  -2.5143555e+00  -2.2411251e+01  -7.2501377e+00   3.8685206e+01   1.0552230e+02   1.7676879e+02   2.3454084e+02   2.6734002e+02   2.6954504e+02   2.4084666e+02   1.8608422e+02   1.1429219e+02   3.8157685e+01  -2.9560838e+01  -7.4874818e+01  -8.4828708e+01  -5.4471629e+01   1.0895281e+01   1.0025298e+02   1.9184875e+02   2.6698352e+02   3.0977972e+02   3.1211247e+02   2.7506979e+02   2.1062945e+02   1.3262900e+02   5.9478834e+01   4.3404801e+00  -1.9391608e+01  -7.5361212e+00   3.6033796e+01   1.0033271e+02   1.7077533e+02   2.2970104e+02   2.6213030e+02   2.6292224e+02   2.3163443e+02   1.7967201e+02   1.1968928e+02   6.5592464e+01   2.9800494e+01   1.6585601e+01   3.0300261e+01   7.1104004e+01   1.3847660e+02   2.2041317e+02   3.0482885e+02   3.7043397e+02   3.9923783e+02   3.8191780e+02   3.2153748e+02   2.3545743e+02   1.4667529e+02   7.5174498e+01   3.6076415e+01   3.4431736e+01   6.7346798e+01   1.2384704e+02   1.9350010e+02   2.6343569e+02   3.2109532e+02   3.5688628e+02   3.6593763e+02   3.4635424e+02   3.0169689e+02   2.4380633e+02   1.8245386e+02   1.3455983e+02   1.1281588e+02   1.2745937e+02   1.8169493e+02   2.6489641e+02   3.5833116e+02   4.3581262e+02   4.7648232e+02   4.6889104e+02   4.1570119e+02   3.3263167e+02   2.3965111e+02   1.5480729e+02   9.3379590e+01   6.2189435e+01   6.5870070e+01   1.0468795e+02   1.7217003e+02   2.5639754e+02   3.3746365e+02   3.9534024e+02   4.1331017e+02   3.8721947e+02   3.2606262e+02   2.4778054e+02   1.7454254e+02   1.2311514e+02   1.0111970e+02   1.1000423e+02   1.4639538e+02   2.0119351e+02   2.6438867e+02   3.2319680e+02   3.6382413e+02   3.7302872e+02   3.4569130e+02   2.8282431e+02   1.9578999e+02   1.0189187e+02   2.0861077e+01  -3.2996832e+01  -4.7152561e+01  -1.7967744e+01   4.8892162e+01   1.4384111e+02   2.4825431e+02   3.4022463e+02   3.9837829e+02   4.0792155e+02   3.6725876e+02   2.8783351e+02   1.9023278e+02   9.7972951e+01   3.1672969e+01   1.4522404e+00   6.3396260e+00   4.2256616e+01   9.8790814e+01   1.6358354e+02   2.2480028e+02   2.6591614e+02   2.7597989e+02   2.4763526e+02   1.8445245e+02   1.0349446e+02   2.4431867e+01  -3.4160145e+01  -5.9507284e+01  -5.0527223e+01  -1.0265638e+01   5.2444626e+01   1.2903492e+02   2.0552048e+02   2.6836829e+02   3.0007066e+02   2.8964559e+02   2.3951733e+02   1.5958338e+02   7.1670044e+01  -6.0711790e+00  -5.9042455e+01  -7.8511454e+01  -6.6638280e+01  -2.5780951e+01   3.4980030e+01   1.0276904e+02   1.6264875e+02   1.9833892e+02   1.9910551e+02   1.6418845e+02   1.0345871e+02   3.0385003e+01  -3.7237633e+01  -8.8073556e+01  -1.1270894e+02  -1.0702515e+02  -6.9956042e+01  -8.4581272e+00   6.6084947e+01   1.3345639e+02   1.7441142e+02   1.7485708e+02   1.3070599e+02   5.0991719e+01  -4.5786562e+01  -1.3773527e+02  -2.0938835e+02  -2.4944969e+02  -2.5164251e+02  -2.1904614e+02  -1.5862979e+02  -8.3086547e+01  -9.4405035e+00   4.3832928e+01   6.4328798e+01   4.6111117e+01  -8.5298763e+00  -8.4119789e+01  -1.6360624e+02  -2.2495066e+02  -2.5591404e+02  -2.4920282e+02  -2.0928412e+02  -1.4747247e+02  -8.0271414e+01  -2.3337393e+01   1.1263403e+01   1.7678029e+01  -8.0316469e+00  -6.2708269e+01  -1.3970533e+02  -2.2815387e+02  -3.1239792e+02  -3.7384892e+02  -3.9641595e+02  -3.7175885e+02  -3.0286759e+02  -2.0483597e+02  -1.0409194e+02  -2.8683879e+01   3.5711075e+00  -1.3759579e+01  -7.2952953e+01  -1.5712435e+02  -2.4698336e+02  -3.2496522e+02  -3.8105152e+02  -4.1144525e+02  -4.1329897e+02  -3.8690406e+02  -3.3808713e+02  -2.7695334e+02  -2.2047852e+02  -1.8470398e+02  -1.8237395e+02  -2.1475723e+02  -2.7513383e+02  -3.5005978e+02  -4.2213259e+02  -4.7964849e+02  -5.0934525e+02  -5.0940503e+02  -4.7705150e+02  -4.1838438e+02  -3.4647968e+02  -2.7616486e+02  -2.2316989e+02  -2.0249327e+02  -2.1777655e+02  -2.6726286e+02  -3.4156906e+02  -4.2410631e+02  -4.9662426e+02  -5.4410881e+02  -5.5218709e+02  -5.1730138e+02  -4.4718263e+02  -3.5252629e+02  -2.5316583e+02  -1.6736595e+02  