   1.3392121e+02   6.3001218e+01   4.2255502e+01   6.7125521e+01   1.2070833e+02   1.8105240e+02   2.3001446e+02   2.5418073e+02   2.4638777e+02   2.0718732e+02   1.4592161e+02   7.6482337e+01   1.7866981e+01  -1.4010526e+01  -1.1252750e+01   1.6245000e+01   5.0692930e+01   7.1282704e+01   6.1695696e+01   2.0024576e+01  -4.0250899e+01  -9.7280017e+01  -1.3055872e+02  -1.2713584e+02  -8.5892496e+01  -1.9068179e+01   4.9595551e+01   9.6300926e+01   1.0124810e+02   5.5749866e+01  -3.1896183e+01  -1.4109388e+02  -2.4308735e+02  -3.1103970e+02  -3.2859567e+02  -2.9329325e+02  -2.1483928e+02  -1.1453746e+02  -1.4657099e+01   6.0215995e+01   9.1193516e+01   7.0029080e+01   1.5368197e+00  -9.2548387e+01  -1.8388397e+02  -2.4165644e+02  -2.4998302e+02  -2.1162178e+02  -1.4824857e+02  -8.5990979e+01  -4.8097534e+01  -4.5184722e+01  -7.0271152e+01  -1.0685806e+02  -1.3796378e+02  -1.4970826e+02  -1.3420109e+02  -9.5386480e+01  -4.1173317e+01   1.1589339e+01   4.5347030e+01   4.5253408e+01   5.3018659e+00  -6.6911928e+01  -1.5282078e+02  -2.2551955e+02  -2.6170008e+02  -2.4840316e+02  -1.8510753e+02  -8.8475032e+01   1.5582817e+01   9.9381771e+01   1.4322382e+02   1.3575321e+02   8.2642293e+01  -1.5305096e+00  -9.1860250e+01  -1.6242544e+02  -1.9576784e+02  -1.8395225e+02  -1.3239715e+02  -5.6005754e+01   2.1402207e+01   7.9220835e+01   1.0316699e+02   9.0163040e+01   5.0862235e+01  -8.9685870e-01  -4.3115672e+01  -6.1778707e+01  -4.8755117e+01  -7.8723498e+00   4.8141811e+01   9.8777929e+01   1.2383774e+02   1.0908813e+02   5.5534187e+01  -1.9516209e+01  -8.6026580e+01  -1.1365313e+02  -8.5573951e+01  -6.4321395e+00   1.0000289e+02   1.9848411e+02   2.5487443e+02   2.5432288e+02   1.9743979e+02   1.0346866e+02  -1.3159307e+00  -9.1262036e+01  -1.4604487e+02  -1.5276202e+02  -1.0893196e+02  -2.5861167e+01   7.6720901e+01   1.7339571e+02   2.3976283e+02   2.6244679e+02   2.4128974e+02   1.8983305e+02   1.2767400e+02   7.7563289e+01   5.3780497e+01   6.3182249e+01   1.0141481e+02   1.5541761e+02   2.0495857e+02   2.3298289e+02   2.2732881e+02   1.8993645e+02   1.3685496e+02   9.3754265e+01   8.3810737e+01   1.1638142e+02   1.8663106e+02   2.7130774e+02   3.4149373e+02   3.7383053e+02   3.5686806e+02   2.9309806e+02   2.0093828e+02   1.0421613e+02   2.8150368e+01  -7.0205150e+00   7.8639745e+00   6.9334093e+01   1.5947156e+02   2.5154087e+02   3.1738823e+02   3.3404844e+02   2.9592011e+02   2.1061814e+02   1.0295203e+02   3.9884610e+00  -6.1638493e+01  -7.7485966e+01  -4.4769176e+01   2.1764303e+01   9.8398291e+01   1.6190810e+02   1.9749510e+02   1.9967593e+02   1.7531251e+02   1.3624467e+02   9.9417520e+01   7.5517297e+01   7.5584700e+01   1.0071909e+02   1.4194393e+02   1.8591382e+02   2.1286378e+02   2.0544893e+02   1.6114530e+02   9.1674026e+01   2.3218016e+01  -1.3404516e+01  -1.4141725e+00   5.9928583e+01   1.5302279e+02   2.4819356e+02   3.1893290e+02   3.5122949e+02   3.4039607e+02   2.9191512e+02   2.1772529e+02   1.3378389e+02   6.0217505e+01   1.8447787e+01   2.4009992e+01   8.3261526e+01   1.8396976e+02   2.9925441e+02   3.9801549e+02   4.5422765e+02   4.5555800e+02   4.1163696e+02   3.4369879e+02   2.7876646e+02   2.3962036e+02   2.3812819e+02   2.7302446e+02   3.3007648e+02   3.9113855e+02   4.3433977e+02   4.4598044e+02   4.2783838e+02   3.8746492e+02   3.4739157e+02   3.2553056e+02   3.3499498e+02   3.7877206e+02   4.4509025e+02   5.1511548e+02   5.6918380e+02   5.8859188e+02   5.6441333e+02   4.9907174e+02   4.0540711e+02   3.0840231e+02   2.3513438e+02   2.0943362e+02   2.4686996e+02   3.4299198e+02   4.7843305e+02   6.2298145e+02   7.4446914e+02   8.2275924e+02   8.5438870e+02   8.5546366e+02   8.5088236e+02   8.6340606e+02   9.0906007e+02   9.8552002e+02   1.0804798e+03   1.1747142e+03   1.2490654e+03   1.2913541e+03   1.2976541e+03   1.2716195e+03   1.2235540e+03   1.1653105e+03   1.1124679e+03   1.0801008e+03   1.0795655e+03   1.1100384e+03   1.1612848e+03   1.2067293e+03   1.2177898e+03   1.1730030e+03   1.0628414e+03   9.0219641e+02   7.1992245e+02   5.5214480e+02   4.2680621e+02   3.5790269e+02   3.4103779e+02   3.5456517e+02   3.7712191e+02   3.8724892e+02   3.7441191e+02   3.3919938e+02   2.9164832e+02   2.5016214e+02   2.3186214e+02   2.5001856e+02   3.1018371e+02   4.0480551e+02   5.1270200e+02   6.1026813e+02   6.7214018e+02   6.8562259e+02   6.5361030e+02   5.9187799e+02   5.2408604e+02   4.7419979e+02   4.5380508e+02   4.6178539e+02   4.9101616e+02   5.2639983e+02   5.5614525e+02   5.6814603e+02   5.5597430e+02   5.2048342e+02   4.7014795e+02   4.2369048e+02   3.9978592e+02   4.1629099e+02   4.7329926e+02   5.5841674e+02   6.4127773e+02   6.9092197e+02   6.8668527e+02   6.2403832e+02   5.1941880e+02   4.0235339e+02   3.0566264e+02   2.5380506e+02   2.5804104e+02   3.1487650e+02   4.0724592e+02   5.0942512e+02   5.8919050e+02   6.2372776e+02   5.9956077e+02   5.2339415e+02   4.1504183e+02   3.0614543e+02   2.2368519e+02   1.8594485e+02   1.9140682e+02   2.2909102e+02   2.7842202e+02   3.1927517e+02   3.3786779e+02   3.2993853e+02   2.9725967e+02   2.4675122e+02   1.9291280e+02   1.4948779e+02   1.3083846e+02   1.4225825e+02   1.7746447e+02   2.2012270e+02   2.4790799e+02   2.4074916e+02   1.9381246e+02   1.1549532e+02   2.9991803e+01  -3.5557960e+01  -5.7180535e+01  -2.8833199e+01   4.3410204e+01   1.3787352e+02   2.2813162e+02   2.8945301e+02   3.0323411e+02   2.6579477e+02   1.8470317e+02   7.9180894e+01  -2.3330749e+01  -9.3166534e+01  -1.1023541e+02  -6.8242575e+01   1.7917524e+01   1.2134098e+02   2.0719184e+02   2.4912433e+02   2.3743061e+02   1.8005655e+02   1.0096590e+02   3.1817955e+01  -4.9212721e+00   2.1460180e+00   4.4692183e+01   1.0634611e+02   1.6340067e+02   1.9691452e+02   1.9780134e+02   1.6951814e+02   1.2476768e+02   8.1955088e+01   5.8553537e+01   6.4574716e+01   1.0466549e+02   1.7085101e+02   2.4577486e+02   3.0882284e+02   3.4223245e+02   3.3160368e+02   2.7636692e+02   1.9069307e+02   9.7761051e+01   2.5773176e+01  -2.8406320e+00   2.4698658e+01   1.0071309e+02   2.0323351e+02   3.0349167e+02   3.7174722e+02   3.8573655e+02   3.4515902e+02   2.5955364e+02   1.5636745e+02   6.3513724e+01   4.7948517e+00  -6.1206477e+00   2.6986031e+01   8.8216706e+01   1.5298514e+02   1.9769389e+02   2.0412540e+02   1.7315238e+02   1.1428407e+02   5.0948040e+01   5.8096567e+00  -6.6008281e+00   1.4534138e+01   5.9424905e+01   1.0812855e+02   1.4157177e+02   1.4416630e+02   1.0948579e+02   4.3744095e+01  -3.7168687e+01  -1.1390011e+02  -1.6451270e+02  -1.7453941e+02  -1.3762318e+02  -6.2872048e+01   2.9604129e+01   1.1498627e+02   1.6565375e+02   1.6095740e+02   9.9436625e+01  -5.8465213e+00  -1.2766749e+02  -2.2904570e+02  -2.8110693e+02  -2.7268196e+02  -2.0964529e+02  -1.1734246e+02  -2.7990706e+01   3.3817687e+01   5.3822005e+01   3.1619605e+01  -2.0326989e+01  -8.4079691e+01  -1.4148598e+02  -1.7689261e+02  -1.7878988e+02  -1.4957862e+02  -9.9945064e+01  -4.9779829e+01  -2.0711457e+01  -2.5775784e+01  -6.6363621e+01  -1.2550421e+02  -1.7810525e+02  -1.9944901e+02  -1.7647229e+02  -1.1138995e+02  -2.2054331e+01   6.4188220e+01   1.2091675e+02   1.2801466e+02   8.3335816e+01  -2.5168453e+00  -1.0627167e+02  -1.9737260e+02  -2.5274432e+02  -2.5424333e+02  -2.0117498e+02  -1.0315499e+02   1.3960334e+01   1.2181975e+02   1.8960311e+02   2.0054921e+02   1.5369351e+02   6.5727344e+01  -3.1575692e+01  -1.0554254e+02  -1.3278121e+02  -1.0579617e+02  -3.8336133e+01   4.2837750e+01   1.1260424e+02   1.4831626e+02   1.4523544e+02   1.1148017e+02   6.3570170e+01   2.4109028e+01   8.4188243e+00   2.6614464e+01   7.6459168e+01   1.4442651e+02   2.1200440e+02   2.5586587e+02   2.5956198e+02   2.1518084e+02   1.3304143e+02   3.5753237e+01  -4.7528590e+01  -8.5572133e+01  -6.2584396e+01   2.0648789e+01   1.4138566e+02   2.6321241e+02   3.5041285e+02   3.7686073e+02   3.3568706e+02   2.4065336e+02   1.2249358e+02   1.5052005e+01  -5.2652415e+01  -6.3673186e+01  -2.0170550e+01   6.1264206e+01   1.5500247e+02   2.3202247e+02   2.7234132e+02   2.6756796e+02   2.2555677e+02   1.6442128e+02   1.0766848e+02   7.4449698e+01   7.4501141e+01   1.0508449e+02   1.5022558e+02   1.9112235e+02   2.1121440e+02   2.0052845e+02   1.5881939e+02   9.8749151e+01   3.8649205e+01  -3.1246446e+00  -1.0092996e+01   2.3792984e+01   9.4150276e+01   1.8480038e+02   2.7163919e+02   3.2795643e+02   3.3759688e+02   2.9335892e+02   2.0886223e+02   1.0852632e+02   2.4840101e+01  -1.5720126e+01   6.7519649e-01   7.1383858e+01   1.7745598e+02   2.9041505e+02   3.8085051e+02   4.2515432e+02   4.1671293e+02   3.6268927e+02   2.8393093e+02   2.0907386e+02   1.6208809e+02   1.5796306e+02   1.9581817e+02   2.5858823e+02   3.2494575e+02   3.7176041e+02   3.8460160e+02   3.6381000e+02   3.2149117e+02   2.7614144e+02   2.4806309e+02   2.4878831e+02   2.8106486e+02   3.3445012e+02   3.9337837e+02   4.3709054e+02   4.4852874e+02   4.1861745e+02   3.5050846e+02   2.5831363e+02   1.6428828e+02   9.5900101e+01   7.3246865e+01   1.0453978e+02   1.8175475e+02   2.8326441e+02   3.7770285e+02   4.3697838e+02   4.4266208e+02   3.9416306e+02   3.0509755e+02   2.0475624e+02   1.2209761e+02   8.0766212e+01   9.2913950e+01   1.5100857e+02   2.3753781e+02   3.2996898e+02   4.0599606e+02   4.5241935e+02   4.6716833e+02   4.5593742e+02   4.3434026e+02   4.1793691e+02   4.2048310e+02   4.4797237e+02   4.9942635e+02   5.6313639e+02   6.1958486e+02   6.5305388e+02   6.5036433e+02   6.1346202e+02   5.5659455e+02   5.0127002e+02   4.7058670e+02   4.8141607e+02   5.3601423e+02   6.2389284e+02   7.2043133e+02   7.9718956e+02   8.2867070e+02   8.0378226e+02   7.2961319e+02   6.2627892e+02   5.2512593e+02   4.5404660e+02   4.2757120e+02   4.4848360e+02   5.0692325e+02   5.8353754e+02   6.5867545e+02   7.1336350e+02   7.3327249e+02   7.1223130e+02   6.5495826e+02   5.7820157e+02   5.0692296e+02   4.6606468e+02   4.6852563e+02   5.0821849e+02   5.6773429e+02   6.2064278e+02   6.4829012e+02   6.4349261e+02   6.1591520e+02   5.8103168e+02   5.5803089e+02   5.5637654e+02   5.8251405e+02   6.3218382e+02   6.9795938e+02   7.6424823e+02   8.1352259e+02   8.3046272e+02   8.0235461e+02   7.3360369e+02   6.4144522e+02   5.5546644e+02   5.0391060e+02   5.0547528e+02   5.6220118e+02   6.5810403e+02   7.6472691e+02   8.5024712e+02   8.9065228e+02   8.7515796e+02   8.0858652e+02   7.0868825e+02   6.0596481e+02   5.2994977e+02   5.0267441e+02   5.3095506e+02   6.0021822e+02   6.8612728e+02   7.5575637e+02   7.8695593e+02   7.7221779e+02   7.2087662e+02   6.5270068e+02   5.9143235e+02   5.5214823e+02   5.4499967e+02   5.6774435e+02   6.0754419e+02   6.4708802e+02   6.6666271e+02   6.5181320e+02   5.9901914e+02   5.1644859e+02   4.2712300e+02   3.5833273e+02   3.3138933e+02   3.5738346e+02   4.2933864e+02   5.2609574e+02   6.1776186e+02   6.7609011e+02   6.8219517e+02   6.3086465e+02   5.3545228e+02   4.2070813e+02   3.1648505e+02   2.4655486e+02   2.2636368e+02   2.5426262e+02   3.1766167e+02   3.9601388e+02   4.6403398e+02   5.0356395e+02   5.0132745e+02   4.5451704e+02   3.7449988e+02   2.8448090e+02   2.0922944e+02   1.6855438e+02   1.6992595e+02   2.0358786e+02   2.4902833e+02   2.8226076e+02   2.8646299e+02   2.5742789e+02   2.0001426e+02   1.3211628e+02   7.2153840e+01   4.1246660e+01   4.8686803e+01   9.4922103e+01   1.6212962e+02   2.2596183e+02   2.5566975e+02   2.3299830e+02   1.5827466e+02   4.9971925e+01  -6.0543176e+01  -1.4183137e+02  -1.7236623e+02  -1.4787615e+02  -7.7720359e+01   1.6797785e+01   1.1269795e+02   1.8125280e+02   2.0482921e+02   1.7191759e+02   9.0511693e+01  -1.7540997e+01  -1.1702744e+02  -1.7632039e+02  -1.8198991e+02  -1.3873257e+02  -7.1472756e+01  -1.2034431e+01   1.5818351e+01   2.3664990e+00  -4.2622071e+01  -1.0170019e+02  -1.5410161e+02  -1.8346902e+02  -1.7867526e+02  -1.3212122e+02  -4.7410882e+01   6.7494772e+01   1.9404432e+02   3.0687984e+02   3.8605037e+02   4.2122769e+02   4.2145651e+02   4.0741832e+02   4.0466134e+02   4.3126510e+02   4.9163715e+02   5.7449917e+02   6.5580754e+02   7.1278660e+02   7.2892959e+02   6.9816994e+02   6.2465555e+02   5.2360305e+02   4.1724206e+02   3.2939392e+02   2.7928270e+02   2.7641186e+02   3.1468603e+02   3.7262142e+02   4.1889400e+02   4.1512881e+02   3.3715946e+02   1.7819302e+02  -4.1667673e+01  -2.8259886e+02  -4.9448750e+02  -6.3716504e+02  -6.8777225e+02  -6.5523011e+02  -5.6808448e+02  -4.6751087e+02  -3.8651523e+02  -3.4794617e+02  -3.5265412e+02  -3.8708940e+02  -4.2716263e+02  -4.5177652e+02  -4.4353901e+02  -4.0108066e+02  -3.3315424e+02  -2.6105519e+02  -2.1142711e+02  -2.0371435e+02  -2.4700501e+02  -3.3460600e+02  -4.4253388e+02  -5.4155107e+02  -6.0192543e+02  -6.0520462e+02  -5.5126234e+02  -4.5370794e+02  -3.4219268e+02  -2.4773901e+02  -1.9746259e+02  -2.0155268e+02  -2.5797306e+02  -3.4516863e+02  -4.3549060e+02  -5.0458087e+02  -5.3505268e+02  -5.2575117e+02  -4.8168294e+02  -4.1910846e+02  -3.5383794e+02  -3.0596778e+02  -2.8775893e+02  -3.0794776e+02  -3.5663288e+02  -4.1437524e+02  -4.5376945e+02  -4.5294364e+02  -4.0647710e+02  -3.3108096e+02  -2.5478593e+02  -2.0986961e+02  -2.1184572e+02  -2.5717540e+02  -3.2782860e+02  -4.0059120e+02  -4.5247478e+02  -4.7323787e+02  -4.5330649e+02  -3.9352947e+02  -3.0117563e+02  -1.9307697e+02  -9.8363016e+01  -4.4329406e+01  -5.2283214e+01  -1.2260819e+02  -2.3098425e+02  -3.4208624e+02  -4.1868873e+02  -4.3735846e+02  -3.9305701e+02  -3.0095988e+02  -1.8730660e+02  -8.2653195e+01  -1.2007712e+01   1.0355659e+01  -1.4816976e+01  -7.4320280e+01  -1.4228581e+02  -1.9225587e+02  -2.0587613e+02  -1.7771126e+02  -1.1865628e+02  -5.3872360e+01  -5.6438115e+00   5.4402869e+00  -2.3638081e+01  -8.3369700e+01  -1.4936603e+02  -1.9577565e+02  -2.0037801e+02  -1.5668505e+02  -7.3670629e+01   2.3181790e+01   1.0631389e+02   1.5034719e+02   1.4455299e+02   9.2818263e+01   1.0147029e+01  -8.1867354e+01  -1.5957362e+02  -2.0349300e+02  -1.9738578e+02  -1.4063626e+02  -4.2578152e+01   7.3038023e+01   1.7471852e+02   2.3434841e+02   2.3494363e+02   1.8097537e+02   9.1611911e+01   8.2208688e-01  -6.1430249e+01  -7.4102644e+01  -3.6629373e+01   3.7249389e+01   1.1921923e+02   1.8206057e+02   2.0471051e+02   1.8408301e+02   1.3077540e+02   6.8153942e+01   2.1831650e+01   1.1734433e+01   4.4412868e+01   1.1284719e+02   1.9584488e+02   2.7061814e+02   3.1274106e+02   3.0988035e+02   2.6173042e+02   1.8446105e+02   1.0442345e+02   4.7397960e+01   3.8808440e+01   8.4701094e+01   1.7776602e+02   2.9342232e+02   3.9939403e+02   4.6577693e+02   4.7579329e+02   4.2751027e+02   3.3873720e+02   2.4082015e+02   1.6364572e+02   1.3034476e+02   1.5057789e+02   2.1676852e+02   3.0839148e+02   4.0182837e+02   4.7187274e+02   5.0516247e+02   4.9588184e+02   4.5298751e+02   3.9266970e+02   3.3529292e+02   3.0317694e+02   3.0592070e+02   3.4343792e+02   4.0163632e+02   4.6114184e+02   4.9913873e+02   5.0070145e+02   4.6615820e+02   4.0699714e+02   3.4829083e+02   3.1309461e+02   3.1929106e+02   3.7356926e+02   4.6157043e+02   5.6090593e+02   6.4218188e+02   6.7885583e+02   6.6012483e+02   5.9131136e+02   4.9329334e+02   3.9507932e+02   3.2416518e+02   3.0133670e+02   3.3077262e+02   4.0259414e+02   4.9761881e+02   5.9145153e+02   6.5869443e+02   6.8240999e+02   6.5622777e+02   5.8856245e+02   4.9996178e+02   4.1813393e+02   3.7022795e+02   3.7213740e+02   4.1990829e+02   4.9498829e+02   5.6848701e+02   6.1433576e+02   6.2064736e+02   5.8886825e+02   5.3638783e+02   4.8377038e+02   4.5221735e+02   4.5177988e+02   4.8192992e+02   5.3433076e+02   5.9327312e+02   6.4070796e+02   6.5660799e+02   6.3292177e+02   5.6880137e+02   4.7996213e+02   3.9259245e+02   3.3767650e+02   3.3445368e+02   3.8773667e+02   4.8293610e+02   5.9317050e+02   6.8523653e+02   7.3199022e+02   7.2123220e+02   6.5664911e+02   5.5659421e+02   4.5110397e+02   3.7003290e+02   3.3307689e+02   3.4946685e+02   4.0924877e+02   4.8960403e+02   5.6607162e+02   6.1531853e+02   6.2665094e+02   5.9890460e+02   5.3954823e+02   4.6439100e+02   3.9569834e+02   3.5333914e+02   3.5054776e+02   3.8800590e+02   4.5151956e+02   5.1105125e+02   5.3676036e+02   5.1336490e+02   4.4467830e+02   3.5542120e+02   2.7895791e+02   2.4195665e+02   2.5568298e+02   3.1547068e+02   4.0092149e+02   4.8687752e+02   5.4867155e+02   5.6608372e+02   5.3017048e+02   4.4277017e+02   3.2583582e+02   2.0936926e+02   1.2912243e+02   1.0994258e+02   1.5744546e+02   2.5266036e+02   3.6273479e+02   4.4820572e+02   4.8324032e+02   4.5996845e+02   3.8765833e+02   2.9381995e+02   2.0793072e+02   1.5285168e+02   1.4170283e+02   1.7177631e+02   2.2805310e+02   2.8838472e+02   3.3089197e+02   3.4210640e+02   3.1716284e+02   2.6401223e+02   1.9894279e+02   1.4124522e+02   1.0913170e+02   1.1460124e+02   1.5464791e+02   2.1512477e+02   2.7305583e+02   3.0272283e+02   2.8692001e+02   2.2167448e+02   1.2351092e+02   1.5750160e+01  -6.9075342e+01  -1.1034465e+02  -9.5140048e+01  -3.2224933e+01   6.0094858e+01   1.5092498e+02   2.1173429e+02   2.1953684e+02   1.6545880e+02   6.2662713e+01  -6.4942866e+01  -1.8314793e+02  -2.6668884e+02  -2.9940487e+02  -2.8578337e+02  -2.4153983e+02  -1.8646294e+02  -1.4325007e+02  -1.2698687e+02  -1.4399792e+02  -1.9199305e+02  -2.5602311e+02  -3.1919557e+02  -3.5989084e+02  -3.6475267e+02  -3.3414769e+02  -2.8396138e+02  -2.3913684e+02  -2.2376855e+02  -2.5037744e+02  -3.1395097e+02  -3.9744198e+02  -4.7597044e+02  -5.2743043e+02  -5.3907015e+02  -5.0625834e+02  -4.3819512e+02  -3.5060091e+02  -2.6901961e+02  -2.1978700e+02  -2.2348895e+02  -2.8461313e+02  -3.8911509e+02  -5.0608422e+02  -6.0009200e+02  -6.4264363e+02  -6.2280399e+02  -5.5264178e+02  -4.5644907e+02  -3.6433291e+02  -3.0021768e+02  -2.7808927e+02  -3.0020458e+02  -3.5702230e+02  -4.3209723e+02  -5.0160465e+02  -5.4402786e+02  -5.4720772e+02  -5.1252105e+02  -4.5423352e+02  -3.9864807e+02  -3.6702995e+02  -3.7199798e+02  -4.1089979e+02  -4.6769719e+02  -5.2339934e+02  -5.5958014e+02  -5.6249192e+02  -5.3007384e+02  -4.6882205e+02  -3.9482840e+02  -3.2987061e+02  -2.9874189e+02  -3.1561496e+02  -3.8294435e+02  -4.8530630e+02  -5.9000903e+02  -6.6077553e+02  -6.7279884e+02  -6.1731923e+02  -5.0862892e+02  -3.7783457e+02  -2.6135250e+02  -1.9245428e+02  -1.8679320e+02  -2.4353312e+02  -3.4056521e+02  -4.4769980e+02  -5.3316354e+02  -5.7271310e+02  -5.6151315e+02  -5.0666636e+02  -4.3268642e+02  -3.6481750e+02  -3.2441279e+02  -3.2217127e+02  -3.5671564e+02  -4.1588210e+02  -4.7954903e+02  -5.2935592e+02  -5.4873378e+02  -5.3358224e+02  -4.8971225e+02  -4.3457030e+02  -3.8931601e+02  -3.7653396e+02  -4.0732717e+02  -4.8011137e+02  -5.7823831e+02  -6.7300796e+02  -7.3618866e+02  -7.4531875e+02  -6.9509176e+02  -6.0202711e+02  -4.9811642e+02  -4.1973935e+02  -3.9334834e+02  -4.3184035e+02  -5.2302796e+02  -6.4134832e+02  -7.5330725e+02  -8.2866907e+02  -8.5054122e+02  -8.1853957e+02  -7.4514415e+02  -6.5387104e+02  -5.7351173e+02  -5.2691288e+02  -5.3019917e+02  -5.8085015e+02  -6.6479053e+02  -7.5304518e+02  -8.1806320e+02  -8.4198913e+02  -8.2021490e+02  -7.6746039e+02  -7.0810053e+02  -6.6700856e+02  -6.6131336e+02  -6.9181174e+02  -7.4922349e+02  -8.1421028e+02  -8.6551014e+02  -8.8717809e+02  -8.7221363e+02  -8.2203094e+02  -7.5423560e+02  -6.8768784e+02  -6.4737291e+02  -6.4865864e+02  -6.9676034e+02  -7.7956251e+02  -8.7358032e+02  -9.5120987e+02  -9.8804100e+02  -9.7232703e+02  -9.0494712e+02  -7.9928302e+02  -6.7502313e+02  -5.5849835e+02  -4.7324041e+02  -4.3569247e+02  -4.5131539e+02  -5.0794378e+02  -5.7959403e+02  -6.3253709e+02  -6.4176261e+02  -5.9618881e+02  -5.0804011e+02  -4.0337098e+02  -3.1526304e+02  -2.6626570e+02  -2.6285819e+02  -2.9702206e+02  -3.5065494e+02  -3.9997209e+02  -4.2774444e+02  -4.1962972e+02  -3.7615918e+02  -3.0604290e+02  -2.2799745e+02  -1.6777680e+02  -1.5002279e+02  -1.8563705e+02  -2.6758085e+02  -3.6858515e+02  -4.5265863e+02  -4.8803021e+02  -4.5666281e+02  -3.6389288e+02  -2.3295845e+02  -9.3795444e+01   2.8007769e+01   1.1428681e+02   1.6056493e+02   1.7452715e+02   1.7122523e+02   1.7118558e+02   1.9487551e+02   2.5749149e+02   3.6060562e+02   4.8898230e+02   6.1824432e+02   7.1454836e+02   7.5450453e+02   7.3053223e+02   6.5569652e+02   5.5953297e+02   4.7797602e+02   4.3673906e+02   4.4696132e+02   4.9849171e+02   5.6897300e+02   6.2731398e+02   6.4770427e+02   6.1450071e+02   5.2636111e+02   3.9390653e+02   2.3966121e+02   8.6574341e+01  -4.1435124e+01  -1.2612377e+02  -1.6253181e+02  -1.5361731e+02  -1.1558768e+02  -7.0005977e+01  -3.8500276e+01  -3.2751209e+01  -5.3419009e+01  -8.7115444e+01  -1.1192278e+02  -1.0582328e+02  -5.6093806e+01   3.3656264e+01   1.4776595e+02   2.5841715e+02   3.3799277e+02   3.6698275e+02   3.4067808e+02   2.7091838e+02   1.8272533e+02   1.0426312e+02   6.1707467e+01   6.8915626e+01   1.2417957e+02   2.0901292e+02   2.9930053e+02   3.6574890e+02   3.8886201e+02   3.6385305e+02   3.0492602e+02   2.3688413e+02   1.8855256e+02   1.8054208e+02   2.2009405e+02   2.9506462e+02   3.8175047e+02   4.5066686e+02   4.7808143e+02   4.5350610e+02   3.8565816e+02   2.9452051e+02   2.1070868e+02   1.6287628e+02   1.6887321e+02   2.2848883e+02   3.2782272e+02   4.3787392e+02   5.2728800e+02   5.7287391e+02   5.6392617e+02   5.0574751e+02   4.1395274e+02   3.1276945e+02   2.2911904e+02   1.8526453e+02   1.9193244e+02   2.5002014e+02   3.4054108e+02   4.3680688e+02   5.0752087e+02   5.2988357e+02   4.9916389e+02   4.3235029e+02   3.5708992e+02   3.0463294e+02   2.9344401e+02   3.2621984e+02   3.8924188e+02   4.5756357e+02   5.0794542e+02   5.2322489e+02   4.9933779e+02   4.4264750e+02   3.7244417e+02   3.1005910e+02   2.7848573e+02   2.9023692e+02   3.4712507e+02   4.3473242e+02   5.3083937e+02   6.0647463e+02   6.3906445e+02   6.1476824e+02   5.3963174e+02   4.3549293e+02   3.3323242e+02   2.6643877e+02   2.5438973e+02   3.0116573e+02   3.9073568e+02   4.9329691e+02   5.7850361e+02   6.2400470e+02   6.2031611e+02   5.7259664e+02   4.9720617e+02   4.1857856e+02   3.5741376e+02   3.3101628e+02   3.4352199e+02   3.8979705e+02   4.5627269e+02   5.2038963e+02   5.6317797e+02   5.7115663e+02   5.4331067e+02   4.9020118e+02   4.2986204e+02   3.8551872e+02   3.7487991e+02   4.0657060e+02   4.7425256e+02   5.5344652e+02   6.1552533e+02   6.3229012e+02   5.9131954e+02   5.0097043e+02   3.9029195e+02   2.9975133e+02   2.6103273e+02   2.9182011e+02   3.8119719e+02   5.0217577e+02   6.1524974e+02   6.8928200e+02   7.0596762e+02   6.6492343e+02   5.8219241e+02   4.8438933e+02   3.9539505e+02   3.3789929e+02   3.2175183e+02   3.4980650e+02   4.1381858e+02   4.9534832e+02   5.6904279e+02   6.1161922e+02   6.0868596e+02   5.6026623e+02   4.8329491e+02   4.0698510e+02   3.5828429e+02   3.5423650e+02   3.9174618e+02   4.5411207e+02   5.1312962e+02   5.4806188e+02   5.4283442e+02   4.9772986e+02   4.2466604e+02   3.4158071e+02   2.7304867e+02   2.4050355e+02   2.5392305e+02   3.1239671e+02   3.9576854e+02   4.7392244e+02   5.1477613e+02   4.9915480e+02   4.2671932e+02   3.1403030e+02   1.9335473e+02   9.3481532e+01   3.7079673e+01   2.9600796e+01   6.6249874e+01   1.2826970e+02   1.9311711e+02   2.3757575e+02   2.4294204e+02   2.0242017e+02   1.2476720e+02   2.8747979e+01  -6.1394929e+01  -1.2500319e+02  -1.5068880e+02  -1.4121508e+02  -1.0839486e+02  -7.1447488e+01  -4.5718375e+01  -4.4502062e+01  -7.3652453e+01  -1.2973641e+02  -1.9999134e+02  -2.6276929e+02  -2.9800332e+02  -2.8988764e+02  -2.4153535e+02  -1.7068281e+02  -1.0712644e+02  -7.9983150e+01  -1.0660210e+02  -1.8278097e+02  -2.9090458e+02  -3.9805467e+02  -4.7654105e+02  -5.0218614e+02  -4.7142390e+02  -3.9393688e+02  -2.9495093e+02  -2.0298879e+02  -1.4832142e+02  -1.4608760e+02  -1.9884816e+02  -2.8726062e+02  -3.8695097e+02  -4.6802750e+02  -5.0954974e+02  -5.0498662e+02  -4.5935977e+02  -3.9015471e+02  -3.2074796e+02  -2.7251163e+02  -2.6146820e+02  -2.9115391e+02  -3.5028607e+02  -4.1826208e+02  -4.7195531e+02  -4.9321688e+02  -4.7528312e+02  -4.2698938e+02  -3.6707212e+02  -3.1745530e+02  -2.9773786e+02  -3.1769824e+02  -3.7531463e+02  -4.5666348e+02  -5.3947293e+02  -6.0058156e+02  -6.1658333e+02  -5.7984347e+02  -4.9588352e+02  -3.9160220e+02  -3.0245231e+02  -2.6100407e+02  -2.8586813e+02  -3.7054923e+02  -4.8957834e+02  -6.0561102e+02  -6.8461281e+02  -7.0627473e+02  -6.6972664e+02  -5.8946679e+02  -4.9293325e+02  -4.0582668e+02  -3.5462088e+02  -3.5424642e+02  -4.0553423e+02  -4.9479052e+02  -5.9523303e+02  -6.7647915e+02  -7.1532673e+02  -7.0301092e+02  -6.5096612e+02  -5.8359458e+02  -5.2916449e+02  -5.0620764e+02  -5.2425832e+02  -5.7432128e+02  -6.3822741e+02  -6.9443021e+02  -7.2533578e+02  -7.2041893e+02  -6.7943114e+02  -6.0993906e+02  -5.3194519e+02  -4.6894734e+02  -4.4597135e+02  -4.7647849e+02  -5.6048073e+02  -6.7387030e+02  -7.8430799e+02  -8.5254580e+02  -8.5726084e+02  -7.9660253e+02  -6.9367500e+02  -5.8276474e+02  -4.9877964e+02  -4.6256168e+02  -4.8009163e+02  -5.3900539e+02  -6.1848151e+02  -6.9586704e+02  -7.4992508e+02  -7.6678058e+02  -7.4076550e+02  -6.7537445e+02  -5.9011344e+02  -5.0864883e+02  -4.5682679e+02  -4.5246165e+02  -4.9718789e+02  -5.7233320e+02  -6.5113452e+02  -7.0321251e+02  -7.0849871e+02  -6.6400141e+02  -5.8583946e+02  -5.0252702e+02  -4.4205238e+02  -4.2635478e+02  -4.5801702e+02  -5.2528898e+02  -6.0215934e+02  -6.5955242e+02  -6.7537130e+02  -6.3947962e+02  -5.5601944e+02  -4.4460977e+02  -3.3459559e+02  -2.5710342e+02  -2.3569583e+02  -2.7757145e+02  -3.7347326e+02  -4.9199357e+02  -5.9726664e+02  -6.5565545e+02  -6.4641345e+02  -5.7462769e+02  -4.6492759e+02  -3.5309556e+02  -2.7131726e+02  -2.3985196e+02  -2.5605811e+02  -3.0693236e+02  -3.6786263e+02  -4.1862941e+02  -4.4434492e+02  -4.4142837e+02  -4.1105956e+02  -3.6371878e+02  -3.1002618e+02  -2.6762127e+02  -2.4877683e+02  -2.6451736e+02  -3.1018515e+02  -3.7093787e+02  -4.2304259e+02  -4.4157897e+02  -4.1468537e+02  -3.4393458e+02  -2.5166878e+02  -1.6775399e+02  -1.1971247e+02  -1.2406619e+02  -1.7869357e+02  -2.6606685e+02  -3.5869429e+02  -4.2843064e+02  -4.5307336e+02  -4.2423030e+02  -3.4696984e+02  -2.3808266e+02  -1.2647816e+02  -3.9770277e+01   9.2248725e-03  -1.6322153e+01  -8.0782242e+01  -1.6722613e+02  -2.4635591e+02  -2.8917758e+02  -2.7991450e+02  -2.2090775e+02  -1.3033716e+02  -3.5259742e+01   3.7048039e+01   6.7617287e+01   5.2431138e+01   3.9510258e-01  -6.4625845e+01  -1.1735603e+02  -1.3373366e+02  -1.0275945e+02  -3.0303709e+01   6.1068418e+01   1.4256097e+02   1.8579542e+02   1.7680731e+02   1.1774337e+02   2.8663534e+01  -5.8569628e+01  -1.1473408e+02  -1.1934351e+02  -6.8469529e+01   2.2939730e+01   1.2705733e+02   2.1461472e+02   2.6047882e+02   2.5337093e+02   1.9697975e+02   1.0684570e+02   5.0357520e+00  -7.9732387e+01  -1.2674327e+02  -1.2170194e+02  -6.3621211e+01   2.8680646e+01   1.2762805e+02   1.9821270e+02   2.1663009e+02   1.7751384e+02   9.6166588e+01   2.8000575e+00  -7.1608186e+01  -1.0716659e+02  -9.8757580e+01  -5.3418077e+01   8.3146845e+00   6.6175604e+01   9.8806325e+01   9.4394924e+01   5.1792313e+01  -1.9269216e+01  -9.1626537e+01  -1.3804341e+02  -1.3574635e+02  -7.8327809e+01   1.6963786e+01   1.1604630e+02   1.8678279e+02   2.0326471e+02   1.6063176e+02   7.5893935e+01  -2.7526400e+01  -1.1814198e+02  -1.7168794e+02  -1.7644985e+02  -1.3070203e+02  -4.7224080e+01   5.1591583e+01   1.3582674e+02   1.8278695e+02   1.7636578e+02   1.2142563e+02   3.3865134e+01  -5.8272418e+01  -1.2773560e+02  -1.5418866e+02  -1.3163811e+02  -7.0168598e+01   1.0485872e+01   8.4350882e+01   1.3015211e+02   1.3487161e+02   1.0148069e+02   4.5671526e+01  -8.9538806e+00  -4.0298137e+01  -3.2000620e+01   1.5236274e+01   8.7001671e+01   1.6345640e+02   2.1916912e+02   2.3696340e+02   2.0887642e+02   1.4191636e+02   5.2647561e+01  -2.9700144e+01  -7.9444437e+01  -7.5056392e+01  -1.5390543e+01   8.5180650e+01   1.9683820e+02   2.8404973e+02   3.2024648e+02   2.9541109e+02   2.1718961e+02   1.1054557e+02   6.6906649e+00  -6.3488851e+01  -7.5510539e+01  -1.9049778e+01   1.0139573e+02   2.6507841e+02   4.3830376e+02   5.8779298e+02   6.8912810e+02   7.3694713e+02   7.4394069e+02   7.3937734e+02   7.4731320e+02   7.8636635e+02   8.5372564e+02   9.3399266e+02   1.0028709e+03   1.0411337e+03   1.0332324e+03   9.8070001e+02   8.9521797e+02   8.0363473e+02   7.3486935e+02   7.1399294e+02   7.5439543e+02   8.4362237e+02   9.5030161e+02   1.0299454e+03   1.0438340e+03   9.7017289e+02   8.1259357e+02   5.9588798e+02   3.5736408e+02   1.3791676e+02  -2.7726349e+01  -1.1653276e+02  -1.2079057e+02  -5.1379473e+01   6.6080233e+01   1.9435733e+02   2.9815035e+02   3.5005644e+02   3.4681559e+02   3.0318364e+02   2.4549030e+02   2.0329302e+02   1.9511475e+02   2.2687472e+02   2.9041068e+02   3.6684391e+02   4.3098353e+02   4.6400419e+02   4.5356746e+02   4.0340951e+02   3.3590568e+02   2.7776552e+02   2.5727554e+02   2.8498322e+02   3.5525001e+02   4.4484250e+02   5.2208723e+02   5.6161701e+02   5.5187111e+02   4.9456218e+02   4.0727777e+02   3.1593914e+02   2.4649875e+02   2.2448580e+02   2.5940742e+02   3.4445305e+02   4.5659956e+02   5.5850838e+02   6.1608199e+02   6.1169534e+02   5.4420942e+02   4.3588400e+02   3.1791114e+02   2.2198490e+02   1.7056340e+02   1.7087743e+02   2.1516790e+02   2.8528087e+02   3.5504450e+02   4.0134428e+02   4.0897853e+02   3.7147974e+02   2.9908965e+02   2.1264991e+02   1.3480937e+02   9.0124725e+01   8.9967066e+01   1.3354006e+02   2.0296222e+02   2.7170914e+02   3.1328520e+02   3.0926304e+02   2.5902870e+02   1.7963780e+02   1.0077919e+02   5.2443139e+01   5.4982418e+01   1.0848043e+02   1.9762441e+02   2.9584772e+02   3.7481324e+02   4.1490249e+02   4.0570525e+02   3.5479409e+02   2.7422614e+02   1.8587818e+02   1.1435833e+02   8.0328839e+01   9.6269086e+01   1.6294284e+02   2.6235207e+02   3.6223161e+02   4.2771382e+02   4.3412226e+02   3.7314963e+02   2.6483936e+02   1.4044801e+02   4.0888185e+01  -1.0481110e+01  -4.7719693e+00   4.3984095e+01   1.0857716e+02   1.5958983e+02   1.7828177e+02   1.5546970e+02   9.7831287e+01   2.0239516e+01  -5.3638067e+01  -1.0269188e+02  -1.1292240e+02  -7.8366046e+01  -9.4159990e+00   7.2947331e+01   1.3684030e+02   1.5661098e+02   1.1846234e+02   3.0059161e+01  -8.4115389e+01  -1.8720767e+02  -2.5025045e+02  -2.5531078e+02  -2.0561785e+02  -1.1969484e+02  -2.5091716e+01   5.1976894e+01   9.1483929e+01   8.0850363e+01   1.9030687e+01  -8.2843412e+01  -2.0181207e+02  -3.0640996e+02  -3.6801940e+02  -3.6632148e+02  -3.0585503e+02  -2.1125937e+02  -1.2346820e+02  -7.6395307e+01  -8.9106079e+01  -1.5295958e+02  -2.4390472e+02  -3.2744063e+02  -3.7724885e+02  -3.8365342e+02  -3.5013854e+02  -2.9212630e+02  -2.3076927e+02  -1.8814430e+02  -1.7941460e+02  -2.1287337e+02  -2.8318124e+02  -3.7375381e+02  -4.5958054e+02  -5.1230457e+02  -5.1463470e+02  -4.6434447e+02  -3.7718616e+02  -2.8266739e+02  -2.1328868e+02  -1.9399059e+02  -2.3283735e+02  -3.2227814e+02  -4.3688967e+02  -5.4577364e+02  -6.1730744e+02  -6.3419904e+02  -5.9201405e+02  -5.0445733e+02  -4.0034777e+02  -3.0989592e+02  -2.6004991e+02  -2.6394807e+02  -3.1782526e+02  -4.0228695e+02  -4.8615200e+02  -5.4161955e+02  -5.4979815e+02  -5.1087187e+02  -4.4128697e+02  -3.6796440e+02  -3.1615154e+02  -3.0060576e+02  -3.2400356e+02  -3.7373146e+02  -4.3277910e+02  -4.7878437e+02  -4.9792089e+02  -4.7770454e+02  -4.2013556e+02  -3.3677091e+02  -2.4996652e+02  -1.8710423e+02  -1.6961792e+02  -2.0872986e+02  -2.9196428e+02  -3.9299046e+02  -4.7664090e+02  -5.1260275e+02  -4.8972322e+02  -4.1228599e+02  -3.0387710e+02  -1.9316391e+02  -1.0952045e+02  -7.2430377e+01  -8.6670199e+01  -1.4439531e+02  -2.2370027e+02  -2.9649846e+02  -3.3521087e+02  -3.2420241e+02  -2.6532608e+02  -1.7619444e+02  -8.5486313e+01  -1.9175170e+01   9.4716857e+00  -1.7693860e+00  -3.9410375e+01  -8.6734951e+01  -1.2624299e+02  -1.4258953e+02  -1.2907819e+02  -8.1251010e+01  -8.3971927e+00   7.2535826e+01   1.3163851e+02   1.4749173e+02   1.0658697e+02   2.1897788e+01  -7.2648810e+01  -1.3839309e+02  -1.4323351e+02  -8.2991050e+01   2.3561816e+01   1.4104577e+02   2.3251838e+02   2.7503197e+02   2.6469930e+02   2.1139446e+02   1.3126558e+02   4.4869644e+01  -2.9561815e+01  -7.3993977e+01  -7.5506741e+01  -3.0789965e+01   4.8851704e+01   1.4231707e+02   2.1716465e+02   2.4970636e+02   2.2787820e+02   1.6007739e+02   7.1773768e+01  -7.6292531e+00  -5.0025207e+01  -4.3945734e+01   5.3316261e+00   7.6864995e+01   1.4258761e+02   1.7813100e+02   1.6602520e+02   1.1058219e+02   2.8855454e+01  -5.2320863e+01  -1.0460020e+02  -1.0999676e+02  -6.7447231e+01   9.1219652e+00   9.6958124e+01   1.6591764e+02   1.9581831e+02   1.7570677e+02   1.0835751e+02   1.3502913e+01  -8.5031381e+01  -1.5648066e+02  -1.7871602e+02  -1.4521581e+02  -6.2217400e+01   4.4651054e+01   1.4421779e+02   2.0363717e+02   2.0418966e+02   1.4526270e+02   4.5977019e+01  -6.2381213e+01  -1.4432369e+02  -1.7666148e+02  -1.5354186e+02  -8.4828604e+01   3.8625541e+00   8.2449912e+01   1.2859798e+02   1.3086654e+02   9.3178679e+01   3.1200787e+01  -3.2113207e+01  -7.2992533e+01  -7.6540926e+01  -4.2790183e+01   1.7877880e+01   8.4421759e+01   1.3075265e+02   1.3979028e+02   1.0499604e+02   3.4892683e+01  -5.2634854e+01  -1.3077686e+02  -1.7695248e+02  -1.7575687e+02  -1.2481469e+02  -3.7617194e+01   6.2991268e+01   1.4730410e+02   1.8756923e+02   1.6904016e+02   9.5712319e+01  -1.2449308e+01  -1.2324769e+02  -2.0484577e+02  -2.3320378e+02  -2.0240853e+02  -1.2393273e+02  -2.3471929e+01   6.5278887e+01   1.1627418e+02   1.1612873e+02   6.6976883e+01  -1.2986867e+01  -9.5743474e+01  -1.5639509e+02  -1.7790501e+02  -1.5480945e+02  -1.0008074e+02  -3.2905189e+01   2.2206650e+01   4.1372082e+01   1.5404890e+01  -5.3328620e+01  -1.4322006e+02  -2.2416374e+02  -2.6554950e+02  -2.4856941e+02  -1.7810531e+02  -7.6553215e+01   1.9429281e+01   7.7621666e+01   7.8622447e+01   2.5902894e+01  -6.2762145e+01  -1.5732159e+02  -2.3003343e+02  -2.6224821e+02  -2.4531735e+02  -1.8381425e+02  -9.2412212e+01   5.5521602e+00   8.4124380e+01   1.2254435e+02   1.1274922e+02   6.0231621e+01  -1.3603317e+01  -8.1695285e+01  -1.1886059e+02  -1.0955867e+02  -5.5125710e+01   3.0139562e+01   1.2199183e+02   1.9767747e+02   2.3903190e+02   2.3928536e+02   2.0539069e+02   1.5515316e+02   1.1113564e+02   9.2684257e+01   1.1302874e+02   1.6805930e+02   2.4718479e+02   3.2801938e+02   3.8706660e+02   4.0757794e+02   3.8368482e+02   3.2476409e+02   2.5252564e+02   1.9301485e+02   1.7105495e+02   1.9918266e+02   2.7368138e+02   3.7702905e+02   4.8135946e+02   5.5593720e+02   5.8167633e+02   5.5170423e+02   4.7689775e+02   3.8090232e+02   2.9288666e+02   2.4162853e+02   2.4204579e+02   2.9381782e+02   3.8143535e+02   4.7529206e+02   5.4683863e+02   5.7386585e+02   5.4597070e+02   4.7418603e+02   3.8032058e+02   2.9725581e+02   2.5173456e+02   2.5964071e+02   3.1626406e+02   3.9773626e+02   4.7113688e+02   5.0724912e+02   4.9408345e+02   4.3536283e+02   3.5415115e+02   2.7738701e+02   2.2774840e+02   2.1948071e+02   2.5317923e+02   3.1990810e+02   4.0365353e+02   4.8439204e+02   5.3955791e+02   5.4989885e+02   5.0587629e+02   4.1384670e+02   3.0091108e+02   2.0301639e+02   1.5609224e+02   1.7732413e+02   2.6399850e+02   3.8791348e+02   5.0659284e+02   5.8302651e+02   5.9587096e+02   5.4622753e+02   4.5521487e+02   3.5420989e+02   2.7532198e+02   2.3884608e+02   2.5173948e+02   3.0549160e+02   3.8132818e+02   4.5297097e+02   4.9971621e+02   5.0686480e+02   4.7376954e+02   4.1387771e+02   3.4878253e+02   3.0092262e+02   2.8966043e+02   3.2067419e+02   3.8384921e+02   4.5839234e+02   5.1919181e+02   5.4305307e+02   5.1881170e+02   4.4966195e+02   3.5424229e+02   2.6069987e+02   1.9657861e+02   1.8241520e+02   2.2404856e+02   3.0880635e+02   4.1119402e+02   5.0196451e+02   5.5205031e+02   5.4723914e+02   4.8786290e+02   3.9102696e+02   2.8463014e+02   1.9706937e+02   1.5056266e+02   1.5613051e+02   2.0441690e+02   2.7698514e+02   3.4598242e+02   3.8969059e+02   3.9690290e+02   3.7047087e+02   3.2961696e+02   3.0230130e+02   3.1152008e+02   3.7238923e+02   4.8391591e+02   6.2947229e+02   7.8144815e+02   9.0887065e+02   9.8548611e+02   9.9631931e+02   9.4721609e+02   8.5617548e+02   7.5697298e+02   6.8311408e+02   6.5804314e+02   6.8747608e+02   7.5873963e+02   8.4240046e+02   9.0576446e+02   9.1956870e+02   8.7478186e+02   7.7500672e+02   6.4336309e+02   5.0847654e+02   3.9275608e+02   3.1201074e+02   2.6135436e+02   2.2531257e+02   1.8140085e+02   1.1171629e+02   7.8232928e+00  -1.2618123e+02  -2.7094263e+02  -4.0259104e+02  -4.9433570e+02  -5.2875975e+02  -4.9982335e+02  -4.1770534e+02  -3.0465259e+02  -1.9162636e+02  -1.0821204e+02  -7.7454297e+01  -1.0260997e+02  -1.7317300e+02  -2.6312659e+02  -3.4167334e+02  -3.8623316e+02  -3.8475577e+02  -3.3961065e+02  -2.6942234e+02  -1.9985871e+02  -1.5702428e+02  -1.5922878e+02  -2.1112833e+02  -3.0349670e+02  -4.1541005e+02  -5.1689189e+02  -5.7962318e+02  -5.8463921e+02  -5.3223358e+02  -4.3747844e+02  -3.3147278e+02  -2.5010335e+02  -2.1821430e+02  -2.4927422e+02  -3.3284150e+02  -4.4361186e+02  -5.4806743e+02  -6.1629774e+02  -6.3088904e+02  -5.9009331e+02  -5.0968658e+02  -4.1562456e+02  -3.4125670e+02  -3.0994001e+02  -3.3205980e+02  -3.9766458e+02  -4.8242109e+02  -5.5587494e+02  -5.9061878e+02  -5.7536736e+02  -5.1630799e+02  -4.3631607e+02  -3.6330081e+02  -3.2053482e+02  -3.1980868e+02  -3.6231691e+02  -4.3330428e+02  -5.1196090e+02  -5.7134868e+02  -5.9182151e+02  -5.6289371e+02  -4.8798564e+02  -3.8578168e+02  -2.8665847e+02  -2.1922861e+02  -2.0498677e+02  -2.4903547e+02  -3.3490741e+02  -4.3189245e+02  -5.0953305e+02  -5.4062681e+02  -5.1659452e+02  -4.4658720e+02  -3.5105508e+02  -2.5525368e+02  -1.8175948e+02  -1.4600148e+02  -1.5379095e+02  -1.9985886e+02  -2.7180468e+02  -3.4413485e+02  -3.9377760e+02  -3.9701210e+02  -3.5128725e+02  -2.6674707e+02  -1.7199655e+02  -1.0317603e+02  -8.2271735e+01  -1.1650096e+02  -1.8760019e+02  -2.6424525e+02  -3.1415790e+02  -3.1424787e+02  -2.6079305e+02  -1.6828544e+02  -6.5969221e+01   1.6182488e+01   5.5817086e+01   4.1869462e+01  -1.8269735e+01  -1.0579817e+02  -1.9181019e+02  -2.5023301e+02  -2.6057836e+02  -2.1741654e+02  -1.2818440e+02  -1.4408871e+01   9.1804498e+01   1.6266701e+02   1.7587733e+02   1.2818830e+02   3.4633304e+01  -7.4632080e+01  -1.6521599e+02  -2.0927686e+02  -1.9311735e+02  -1.2521063e+02  -2.6754308e+01   6.9402420e+01   1.3614486e+02   1.5375870e+02   1.2010091e+02   4.5647660e+01  -4.3543698e+01  -1.1627767e+02  -1.4529319e+02  -1.1999756e+02  -4.6662565e+01   4.6635158e+01   1.2233414e+02   1.5158059e+02   1.2228614e+02   4.5398886e+01  -5.3047673e+01  -1.4085432e+02  -1.9267594e+02  -1.9625159e+02  -1.5286059e+02  -7.3887481e+01   2.1067573e+01   1.0635156e+02   1.5713654e+02   1.5288854e+02   8.9732728e+01  -2.0690211e+01  -1.4453908e+02  -2.4228340e+02  -2.8042173e+02  -2.4935433e+02  -1.6126119e+02  -4.7422328e+01   5.2824409e+01   1.0891872e+02   1.0758669e+02   5.2347436e+01  -3.4363683e+01  -1.2411057e+02  -1.8945952e+02  -2.0814849e+02  -1.7747276e+02  -1.0685668e+02  -2.5149814e+01   3.8105484e+01   5.5887724e+01   1.8373081e+01  -6.6435932e+01  -1.7231985e+02  -2.6717274e+02  -3.1999547e+02  -3.1761731e+02  -2.6228470e+02  -1.7325795e+02  -8.3166001e+01  -2.1568271e+01  -1.3414266e+01  -6.1471189e+01  -1.5518443e+02  -2.6603191e+02  -3.6468153e+02  -4.2471870e+02  -4.3087648e+02  -3.8384018e+02  -2.9877281e+02  -1.9837554e+02  -1.1302745e+02  -6.8789970e+01  -8.1419131e+01  -1.4888718e+02  -2.5048187e+02  -3.4978301e+02  -4.1327625e+02  -4.1354320e+02  -3.5112529e+02  -2.4523945e+02  -1.3218069e+02  -4.4945157e+01  -4.8044152e+00  -1.2875563e+01  -5.4065109e+01  -1.0233630e+02  -1.3252097e+02  -1.2842747e+02  -8.5257722e+01  -1.1577718e+01   7.3790113e+01   1.4893045e+02   1.9238330e+02   1.9029562e+02   1.4318376e+02   6.3071803e+01  -2.8742430e+01  -1.0630608e+02  -1.4659906e+02  -1.3701798e+02  -7.7011432e+01   1.9665440e+01   1.2489749e+02   2.0551369e+02   2.3602227e+02   2.0169629e+02   1.1275791e+02  -2.0448727e+00  -1.0439948e+02  -1.5742301e+02  -1.4454408e+02  -7.0485064e+01   3.8198972e+01   1.4583943e+02   2.1678219e+02   2.3100740e+02   1.8718940e+02   1.0198520e+02   7.8797501e+00  -6.5338105e+01  -9.3003524e+01  -6.6851368e+01   1.5227926e+00   8.7428817e+01   1.6278772e+02   2.0188852e+02   1.9532258e+02   1.4616848e+02   7.4397222e+01   4.0224567e+00  -3.7767313e+01  -3.6943460e+01   1.1604685e+01   9.8438219e+01   2.0229300e+02   2.9466269e+02   3.4916763e+02   3.5071941e+02   2.9953025e+02   2.1400516e+02   1.2417769e+02   6.1091758e+01   4.7832766e+01   8.9355853e+01   1.7570106e+02   2.8680183e+02   3.9332372e+02   4.7137922e+02   5.0105652e+02   4.7976793e+02   4.1643948e+02   3.3120636e+02   2.5702107e+02   2.1886752e+02   2.3169766e+02   2.9363292e+02   3.8359074e+02   4.6975185e+02   5.2673660e+02   5.3750462e+02   5.0710352e+02   4.5042800e+02   3.9077720e+02   3.4968550e+02   3.4070954e+02   3.6918994e+02   4.2836309e+02   5.0478492e+02   5.7729985e+02   6.2130420e+02   6.2029388e+02   5.6689867e+02   4.7572503e+02   3.7699762e+02   3.0567099e+02   2.9083626e+02   3.4149821e+02   4.4406310e+02   5.6838683e+02   6.7546349e+02   7.3534933e+02   7.3119447e+02   6.6852609e+02   5.7010749e+02   4.6741360e+02   3.9046646e+02   3.6492332e+02   3.9453821e+02   4.7135498e+02   5.7047959e+02   6.6250634e+02   7.2220211e+02   7.3535293e+02   7.0096905e+02   6.3223043e+02   5.5125128e+02   4.8140312e+02   4.4502979e+02   4.5356339e+02   5.0525609e+02   5.8423656e+02   6.6286936e+02   7.0999964e+02   7.0705462e+02   6.5434453e+02   5.6913873e+02   4.8279101e+02   4.2980102e+02   4.2970684e+02   4.8477802e+02   5.7759178e+02   6.8101142e+02   7.6134373e+02   7.9409606e+02   7.6721655e+02   6.8916333e+02   5.8046340e+02   4.7217251e+02   3.9827413e+02   3.7803848e+02   4.1638639e+02   5.0135635e+02   6.0515956e+02   6.9453905e+02   7.4278971e+02   7.3727791e+02   6.7878775e+02   5.8635650e+02   4.8601699e+02   4.1047955e+02   3.7974343e+02   4.0662700e+02   4.8124834e+02   5.7988736e+02   6.7192899e+02   7.2728437e+02   7.2822747e+02   6.7711493e+02   5.9480234e+02   5.1329561e+02   4.6172373e+02   4.5958908e+02   5.0616303e+02   5.8387637e+02   6.6693313e+02   7.2867733e+02   7.5101318e+02   7.2981870e+02   6.6992019e+02   5.9161299e+02   5.1746516e+02   4.6866832e+02   4.6300543e+02   5.0433188e+02   5.8036322e+02   6.6888041e+02   7.4173825e+02   7.7384695e+02   7.5397817e+02   6.8393076e+02   5.8405918e+02   4.7995215e+02   3.9958269e+02   3.6304289e+02   3.7777897e+02   4.3611732e+02   5.1818258e+02   5.9359563e+02   6.3614816e+02   6.2636150e+02   5.6453848e+02   4.6737983e+02   3.6298926e+02   2.8456964e+02   2.5184254e+02   2.6997330e+02   3.2263463e+02   3.8316967e+02   4.1915717e+02   4.1057595e+02   3.5256741e+02   2.5957062e+02   1.5810274e+02   7.7196526e+01   3.8924445e+01   5.1076569e+01   1.0870832e+02   1.9004423e+02   2.6850734e+02   3.1699133e+02   3.1443599e+02   2.5264698e+02   1.4416118e+02   1.3525961e+01  -1.0386334e+02  -1.7580714e+02  -1.8306114e+02  -1.3204825e+02  -4.9039865e+01   3.0924129e+01   7.7442853e+01   7.5508818e+01   2.5531825e+01  -5.7562661e+01  -1.5277883e+02  -2.3989140e+02  -3.0214299e+02  -3.2668627e+02  -3.1008590e+02  -2.5947824e+02  -1.9571419e+02  -1.4442320e+02  -1.3191873e+02  -1.7490086e+02  -2.6399333e+02  -3.7557751e+02  -4.7366227e+02  -5.2621697e+02  -5.1991473e+02  -4.6274304e+02  -3.7827425e+02  -3.0111949e+02  -2.6165744e+02  -2.7702805e+02  -3.4631785e+02  -4.4885452e+02  -5.5589600e+02  -6.3526521e+02  -6.6320355e+02  -6.3530586e+02  -5.6399164e+02  -4.7337694e+02  -3.9618795e+02  -3.5493551e+02  -3.6044577e+02  -4.0973243e+02  -4.8713910e+02  -5.7300919e+02  -6.4339027e+02  -6.8300816e+02  -6.7835556e+02  -6.3135632e+02  -5.5448603e+02  -4.7200160e+02  -4.1448472e+02  -4.0174494e+02  -4.4098957e+02  -5.1409694e+02  -5.8817744e+02  -6.2690056e+02  -6.0086025e+02  -5.0392832e+02  -3.5020892e+02  -1.7364231e+02  -9.0454156e+00   1.1413748e+02   1.8235314e+02   1.9793493e+02   1.7591892e+02   1.3969948e+02   1.1221916e+02   1.1652360e+02   1.5973785e+02   2.3976343e+02   3.3748995e+02   4.2654888e+02   4.7817091e+02   4.7401800e+02   4.1516855e+02   3.1964526e+02   2.2160518e+02   1.5400731e+02   1.3669650e+02   1.6802957e+02   2.2336478e+02   2.6719234e+02   2.6289561e+02   1.9066970e+02   4.8451795e+01  -1.3895091e+02  -3.3812470e+02  -5.0856587e+02  -6.1863973e+02  -6.5208514e+02  -6.0701532e+02  -4.9819219e+02  -3.5788620e+02  -2.2038310e+02  -1.2359951e+02  -8.7868808e+01  -1.1456959e+02  -1.8501453e+02  -2.6130670e+02  -3.0825459e+02  -3.0343796e+02  -2.4445939e+02  -1.5031949e+02  -5.3427335e+01   1.6503471e+01   3.6080458e+01   2.2761278e+00  -7.5727560e+01  -1.7317764e+02  -2.6140308e+02  -3.1640087e+02  -3.2132106e+02  -2.7683045e+02  -1.9631341e+02  -1.0250259e+02  -2.1901284e+01   2.1303339e+01   1.1655351e+01  -5.1476120e+01  -1.5340155e+02  -2.6871475e+02  -3.6288230e+02  -4.0776959e+02  -3.8909061e+02  -3.1576680e+02  -2.1681373e+02  -1.3312280e+02  -9.6806515e+01  -1.2121576e+02  -1.9717828e+02  -2.9363237e+02  -3.7908320e+02  -4.2675404e+02  -4.2544194e+02  -3.8019282e+02  -3.0994944e+02  -2.3696071e+02  -1.8444493e+02  -1.7022051e+02  -2.0436276e+02  -2.7929903e+02  -3.7632659e+02  -4.6678296e+02  -5.2058694e+02  -5.2008484e+02  -4.6233689e+02  -3.6710454e+02  -2.6648820e+02  -1.9288102e+02  -1.7309375e+02  -2.1078669e+02  -2.9562643e+02  -4.0408966e+02  -5.0404656e+02  -5.6773717e+02  -5.7699409e+02  -5.2480561e+02  -4.2547793e+02  -3.0337034e+02  -1.9689849e+02  -1.3967518e+02  -1.4991625e+02  -2.2349863e+02  -3.3255953e+02  -4.3575123e+02  -4.9778465e+02  -5.0017795e+02  -4.4640451e+02  -3.6081135e+02  -2.7337517e+02  -2.1303136e+02  -1.9641348e+02  -2.2702363e+02  -2.9505949e+02  -3.7860960e+02  -4.4818342e+02  -4.8013040e+02  -4.5887990e+02  -3.8730376e+02  -2.8774706e+02  -1.9499346e+02  -1.4007300e+02  -1.4285520e+02  -2.0046112e+02  -2.9064372e+02  -3.8470509e+02  -4.5274845e+02  -4.7966876e+02  -4.5771575e+02  -3.9390382e+02  -3.0285363e+02  -2.0541560e+02  -1.2408192e+02  -8.1212520e+01  -8.9157109e+01  -1.4943179e+02  -2.4250026e+02  -3.3693094e+02  -4.0231853e+02  -4.1581317e+02  -3.7456392e+02  -2.9670323e+02  -2.1125164e+02  -1.4994424e+02  -1.3395226e+02  -1.6448671e+02  -2.2932427e+02  -3.0669578e+02  -3.7024227e+02  -3.9943187e+02  -3.8436327e+02  -3.2741035e+02  -2.4451436e+02  -1.6066886e+02  -1.0470726e+02  -9.8386987e+01  -1.4868170e+02  -2.4316747e+02  -3.4874958e+02  -4.2824976e+02  -4.5111565e+02  -4.0713238e+02  -3.0963617e+02  -1.9215635e+02  -9.1190120e+01  -3.5375465e+01  -3.8169519e+01  -9.1992976e+01  -1.7970882e+02  -2.7361337e+02  -3.5036933e+02  -3.8805944e+02  -3.7518814e+02  -3.1211475e+02  -2.1585846e+02  -1.1300443e+02  -3.4992222e+01  -6.8855914e+00  -3.6550202e+01  -1.1305936e+02  -2.0646479e+02  -2.8435252e+02  -3.1740019e+02  -2.9785006e+02  -2.3250067e+02  -1.4728071e+02  -6.9223404e+01  -2.3146955e+01  -2.0084915e+01  -5.9263273e+01  -1.2526864e+02  -1.9436703e+02  -2.4225756e+02  -2.4842335e+02  -2.0403464e+02  -1.1613612e+02  -9.3646317e+00   8.5792708e+01   1.3974228e+02   1.3240928e+02   6.7961544e+01  -3.2918536e+01  -1.3502758e+02  -2.0203023e+02  -2.1028034e+02  -1.5496092e+02  -5.1272441e+01   7.2033130e+01   1.7868161e+02   2.4293129e+02   2.4847580e+02   1.9939112e+02   1.1458569e+02   2.4963627e+01  -4.0811357e+01  -5.6993877e+01  -1.8797931e+01   6.2416479e+01   1.6346142e+02   2.5302758e+02   3.0426261e+02   3.0611946e+02   2.5978664e+02   1.8479195e+02   1.0709879e+02   5.7135643e+01   5.5689436e+01   1.0563533e+02   1.9555489e+02   2.9570854e+02   3.7508989e+02   4.0795791e+02   3.8575143e+02   3.1779709e+02   2.3056867e+02   1.5200843e+02   1.0601918e+02   1.0816163e+02   1.5754698e+02   2.4090977e+02   3.3819969e+02   4.2226932e+02   4.6992133e+02   4.6513526e+02   4.0786304e+02   3.1418529e+02   2.1540893e+02   1.4229073e+02   1.1847996e+02   1.4919557e+02   2.2311739e+02   3.1380706e+02   3.9121603e+02   4.3154660e+02   4.2231849e+02   3.6608712e+02   2.7866742e+02   1.8848481e+02   1.2323443e+02   1.0588228e+02   1.4291415e+02   2.2267556e+02   3.1599194e+02   3.8854731e+02   4.1428335e+02   3.8175112e+02   3.0301162e+02   2.0512298e+02   1.2100871e+02   7.9004355e+01   9.2144639e+01   1.5603002e+02   2.4797102e+02   3.3641408e+02   3.8994900e+02   3.8803270e+02   3.3231491e+02   2.3619892e+02   1.3178335e+02   4.8118886e+01   1.2215013e+01   3.2954658e+01   1.0279638e+02   1.9994436e+02   2.9793260e+02   3.6585207e+02   3.8529778e+02   3.5089139e+02   2.7301618e+02   1.7393159e+02   8.0225280e+01   1.9038427e+01   6.1942533e+00   4.5050492e+01   1.2068642e+02   2.0831513e+02   2.7613405e+02   2.9873234e+02   2.6800890e+02   1.9637328e+02   1.1053610e+02   4.1950097e+01   1.3372138e+01   3.0625322e+01   8.3253239e+01   1.5149865e+02   2.1531404e+02   2.5747654e+02   2.6686324e+02   2.3787455e+02   1.7489694e+02   9.1285117e+01   1.4107335e+01  -2.9730689e+01  -1.7828924e+01   5.1578995e+01   1.5806242e+02   2.6857411e+02   3.4411124e+02   3.6140673e+02   3.1758269e+02   2.2665891e+02   1.1844171e+02   2.2100785e+01  -3.5891813e+01  -4.2275698e+01   1.7140350e+00   7.9619571e+01   1.6414321e+02   2.2256910e+02   2.3219744e+02   1.8278018e+02   8.9927215e+01  -1.8922932e+01  -1.0962476e+02  -1.5688788e+02  -1.5117652e+02  -1.0139447e+02  -3.1175522e+01   3.3649444e+01   6.7274056e+01   5.7819908e+01   2.0148375e+00  -8.5218786e+01  -1.7848453e+02  -2.5243726e+02  -2.8236840e+02  -2.5974760e+02  -1.9025844e+02  -9.7305115e+01  -7.7416975e+00   5.1881756e+01   6.5450580e+01   3.0868739e+01  -3.8712912e+01  -1.2012923e+02  -1.8525959e+02  -2.0705539e+02  -1.7036422e+02  -7.8074972e+01   4.9407200e+01   1.7754690e+02   2.7157601e+02   3.0876308e+02   2.8712640e+02   2.2380637e+02   1.5002069e+02   9.9251939e+01   9.5507932e+01   1.4377368e+02   2.3405136e+02   3.4189791e+02   4.3659830e+02   4.9262437e+02   4.9730397e+02   4.5289252e+02   3.7841296e+02   3.0132792e+02   2.4978475e+02   2.4128593e+02   2.8082791e+02   3.5575618e+02   4.4306152e+02   5.1607937e+02   5.5212273e+02   5.3993822e+02   4.8123679e+02   3.9679945e+02   3.1339590e+02   2.6042424e+02   2.5724357e+02   3.0828791e+02   3.9817636e+02   5.0045039e+02   5.8377763e+02   6.2403675e+02   6.0909474e+02   5.4450057e+02   4.4961525e+02   3.5046606e+02   2.7328584e+02   2.4074459e+02   2.6096621e+02   3.2652348e+02   4.1800888e+02   5.0499825e+02   5.5883054e+02   5.6206245e+02   5.1190157e+02   4.2522847e+02   3.2956575e+02   2.5297764e+02   2.1586447e+02   2.2363895e+02   2.6532966e+02   3.2255658e+02   3.7058092e+02   3.9080883e+02   3.6965263e+02   3.0817972e+02   2.2033633e+02   1.3128857e+02   6.9007051e+01   5.4126026e+01   9.2037662e+01   1.6815723e+02   2.5264249e+02   3.1309911e+02   3.2351610e+02   2.7926562e+02   1.9160402e+02   8.4535681e+01  -1.4306583e+01  -8.0523057e+01  -9.6433577e+01  -5.9188677e+01   2.3422260e+01   1.2470772e+02   2.1483768e+02   2.6084167e+02   2.4566873e+02   1.7376764e+02   7.0085460e+01  -3.2831841e+01  -1.0139346e+02  -1.2209500e+02  -9.4303385e+01  -3.5864717e+01   3.1621472e+01   8.6298286e+01   1.1154546e+02   9.9386226e+01   5.0405795e+01  -2.2761091e+01  -9.8554571e+01  -1.5090972e+02  -1.5690742e+02  -1.1183282e+02  -2.5973315e+01   6.9813240e+01   1.4303656e+02   1.6814953e+02   1.3567020e+02   5.3530444e+01  -5.1146598e+01  -1.4685330e+02  -2.0362493e+02  -2.0293210e+02  -1.4469791e+02  -4.8823894e+01   5.5646697e+01   1.3189280e+02   1.5524755e+02   1.2155673e+02   4.1640906e+01  -5.5903183e+01  -1.4152853e+02  -1.9269033e+02  -1.9875963e+02  -1.6307813e+02  -9.8578239e+01  -2.8134656e+01   2.6504824e+01   4.4278460e+01   1.4790272e+01  -5.5513264e+01  -1.4263556e+02  -2.0769208e+02  -2.1343707e+02  -1.3855525e+02   1.0973408e+01   2.0385191e+02   3.9446952e+02   5.3998222e+02   6.1951994e+02   6.3152093e+02   5.9411521e+02   5.3507311e+02   4.8359285e+02   4.5755303e+02   4.6636771e+02   5.1008440e+02   5.7501627e+02   6.3843102e+02   6.7719396e+02   6.7230687e+02   6.2030300e+02   5.3144943e+02   4.2835617e+02   3.3937003e+02   2.8347324e+02   2.6688284e+02   2.7800402e+02   2.9500458e+02   2.8948849e+02   2.3612941e+02   1.1919233e+02  -5.6077426e+01  -2.6620477e+02  -4.7473066e+02  -6.3755057e+02  -7.2164267e+02  -7.1305231e+02  -6.2157841e+02  -4.8000315e+02  -3.3347113e+02  -2.2118720e+02  -1.7046288e+02  -1.8802098e+02  -2.5840929e+02  -3.4971677e+02  -4.2606604e+02  -4.5812736e+02  -4.2956053e+02  -3.4795111e+02  -2.4125593e+02  -1.4454463e+02  -9.1349064e+01  -1.0171757e+02  -1.7186318e+02  -2.7915670e+02  -3.8950937e+02  -4.6746296e+02  -4.8911039e+02  -4.4869173e+02  -3.5844049e+02  -2.4676054e+02  -1.4561686e+02  -8.6545119e+01  -8.3442321e+01  -1.3504978e+02  -2.2286171e+02  -3.1846504e+02  -3.9258970e+02  -4.2197637e+02  -3.9892267e+02  -3.3012515e+02  -2.3494983e+02  -1.4104963e+02  -7.5731669e+01  -6.1184455e+01  -9.9381930e+01  -1.7928350e+02  -2.7123409e+02  -3.4179004e+02  -3.6409370e+02  -3.3074792e+02  -2.5295435e+02  -1.5921577e+02  -8.1664329e+01  -4.7499222e+01  -6.3637525e+01  -1.2230088e+02  -2.0199815e+02  -2.7662647e+02  -3.2175826e+02  -3.2214190e+02  -2.7635832e+02  -1.9447074e+02  -9.7100402e+01  -1.1143404e+01   3.7255876e+01   2.9291305e+01  -3.5093465e+01  -1.3838157e+02  -2.4888447e+02  -3.2934442e+02  -3.5269668e+02  -3.0990283e+02  -2.1670270e+02  -1.0475337e+02  -1.4409297e+01   2.7220917e+01   6.7695153e+00  -6.2035661e+01  -1.5451273e+02  -2.3925301e+02  -2.9039798e+02  -2.9496223e+02  -2.5420074e+02  -1.8198474e+02  -1.0276879e+02  -4.1479985e+01  -1.6975468e+01  -4.0173000e+01  -1.0641509e+02  -1.9925517e+02  -2.8709717e+02  -3.4354537e+02  -3.4643480e+02  -2.9460565e+02  -2.0552444e+02  -1.1051178e+02  -4.4076924e+01  -3.1123184e+01  -7.6168323e+01  -1.6509431e+02  -2.6950193e+02  -3.5595565e+02  -3.9983748e+02  -3.8968556e+02  -3.3004833e+02  -2.3798651e+02  -1.3805633e+02  -5.6360683e+01  -1.4505115e+01  -2.2638976e+01  -8.1093968e+01  -1.7166272e+02  -2.6576413e+02  -3.3318943e+02  -3.4931262e+02  -3.0683649e+02  -2.2126818e+02  -1.2201451e+02  -4.4712133e+01  -1.4606646e+01  -4.1086358e+01  -1.1076741e+02  -1.9704985e+02  -2.7029350e+02  -3.0727057e+02  -2.9881876e+02  -2.4887900e+02  -1.7427308e+02  -9.7279513e+01  -4.0752592e+01  -2.3655653e+01  -5.4080540e+01  -1.2503505e+02  -2.1575083e+02  -2.9548610e+02  -3.3334316e+02  -3.1195799e+02  -2.3326336e+02  -1.2277211e+02  -1.5572957e+01   5.4076022e+01   6.3578916e+01   1.2135990e+01  -8.3090060e+01  -1.9346831e+02  -2.8494736e+02  -3.3310357e+02  -3.2500377e+02  -2.6408125e+02  -1.7049886e+02  -7.3232575e+01  -1.7887482e+00   2.1469057e+01  -8.7015219e+00  -8.0344830e+01  -1.6875777e+02  -2.4431848e+02  -2.8414436e+02  -2.7645516e+02  -2.2494803e+02  -1.4378826e+02  -5.7563618e+01   8.8225757e+00   3.4354868e+01   9.2115992e+00  -6.2883872e+01  -1.5872063e+02  -2.4676857e+02  -2.9182318e+02  -2.7400416e+02  -1.9450285e+02  -7.7833775e+01   3.3887660e+01   1.0151401e+02   1.0022578e+02   2.8677829e+01  -8.7057926e+01  -2.0908762e+02  -2.9839306e+02  -3.2688277e+02  -2.9060733e+02  -2.0352867e+02  -9.2644182e+01   6.9383990e+00   6.9775457e+01   7.9608375e+01   3.6616775e+01  -4.2562116e+01  -1.3334132e+02  -2.0675078e+02  -2.3930838e+02  -2.2003869e+02  -1.5409221e+02  -6.0840520e+01   3.1900018e+01   9.4302155e+01   1.0556136e+02   6.2613139e+01  -2.2301305e+01  -1.1738630e+02  -1.8880574e+02  -2.1218851e+02  -1.7703363e+02  -9.6601788e+01   3.6617605e+00   9.0357620e+01   1.3669132e+02   1.2927265e+02   7.1298540e+01  -2.0583985e+01  -1.1873121e+02  -1.9255700e+02  -2.1830476e+02  -1.8340825e+02  -9.7069408e+01   1.5798781e+01   1.1831894e+02   1.7764036e+02   1.7600728e+02   1.1602548e+02   2.2455136e+01  -7.3401765e+01  -1.4093234e+02  -1.6212846e+02  -1.3604251e+02  -7.3431626e+01   5.2209610e+00   7.9323951e+01   1.2997727e+02   1.4181095e+02   1.1204616e+02   4.7185558e+01  -3.2528055e+01  -1.0006653e+02  -1.3107594e+02  -1.1278162e+02  -4.9114312e+01   3.5616936e+01   1.1041447e+02   1.4614183e+02   1.3082921e+02   6.8029552e+01  -1.8203855e+01  -1.0041009e+02  -1.5093124e+02  -1.5527281e+02  -1.1158278e+02  -3.4133578e+01   5.6709171e+01   1.3277454e+02   1.6799994e+02   1.5080341e+02   8.4226402e+01  -1.2499908e+01  -1.0653479e+02  -1.6808160e+02  -1.7605663e+02  -1.3070555e+02  -4.8068573e+01   4.4165966e+01   1.1809540e+02   1.5163885e+02   1.3798834e+02   8.0801877e+01  -1.1675421e+00  -8.4535267e+01  -1.4374568e+02  -1.6148954e+02  -1.3006683e+02  -5.9678781e+01   2.6730106e+01   1.0270581e+02   1.4191434e+02   1.3204798e+02   7.7454925e+01  -5.6725121e+00  -8.7953680e+01  -1.4415488e+02  -1.5317041e+02  -1.1172816e+02  -3.3952708e+01   5.5419748e+01   1.2465032e+02   1.5066275e+02   1.2064307e+02   4.4103076e+01  -5.5614372e+01  -1.4662636e+02  -1.9929031e+02  -1.9535638e+02  -1.3556118e+02  -3.9857965e+01   6.2814485e+01   1.3858001e+02   1.6562588e+02   1.3798420e+02   6.6626679e+01  -2.3103527e+01  -1.0789722e+02  -1.6435918e+02  -1.8022022e+02  -1.5196092e+02  -9.0082009e+01  -8.9699156e+00   6.7968226e+01   1.1404303e+02   1.1377291e+02   6.1740343e+01  -2.7071295e+01  -1.1956801e+02  -1.8408457e+02  -1.9307794e+02  -1.4416315e+02  -5.5867281e+01   3.8811130e+01   1.0526881e+02   1.1971174e+02   7.7056822e+01  -5.9311905e+00  -1.0398365e+02  -1.8509750e+02  -2.2524024e+02  -2.1286300e+02  -1.5146372e+02  -5.9700610e+01   3.3698298e+01   1.0131093e+02   1.1970014e+02   8.3303758e+01   3.2243633e-01  -1.0501722e+02  -1.9965460e+02  -2.5575007e+02  -2.5641451e+02  -1.9934553e+02  -1.0390600e+02   2.0507471e+00   8.2633396e+01   1.1463107e+02   8.8410460e+01   1.6816563e+01  -7.3495735e+01  -1.4909098e+02  -1.8554764e+02  -1.7186986e+02  -1.1582861e+02  -3.7863401e+01   3.5068129e+01   8.3681126e+01   9.2609012e+01   6.1709496e+01   1.3921232e+00  -7.1458043e+01  -1.3163684e+02  -1.5821227e+02  -1.3843620e+02  -7.4399834e+01   1.6774225e+01   1.0564698e+02   1.6194065e+02   1.6573222e+02   1.1539300e+02   2.7337168e+01  -6.9697952e+01  -1.4236254e+02  -1.6863178e+02  -1.3880108e+02  -6.0979196e+01   4.0051408e+01   1.3594372e+02   1.9761645e+02   2.0668866e+02   1.6252684e+02   7.5992073e+01  -2.4336167e+01  -1.0892621e+02  -1.5425073e+02  -1.4676534e+02  -8.8383920e+01   6.2682073e-01   9.2624055e+01   1.5817271e+02   1.7414945e+02   1.3344884e+02   4.8478464e+01  -5.1685993e+01  -1.3489466e+02  -1.7447120e+02  -1.5961880e+02  -1.0128657e+02  -2.4569559e+01   4.0515234e+01   6.9536317e+01   4.9355519e+01  -1.4795304e+01  -1.0553393e+02  -1.9880187e+02  -2.6685317e+02  -2.8887602e+02  -2.5614651e+02  -1.7939385e+02  -8.0583589e+01   4.8857724e+00   5.1103047e+01   4.2523053e+01  -1.7032376e+01  -1.0685827e+02  -1.9919663e+02  -2.6957014e+02  -2.9865946e+02  -2.8159161e+02  -2.2433204e+02  -1.4043513e+02  -5.1204209e+01   1.7229593e+01   4.1746377e+01   1.4188927e+01  -6.0126166e+01  -1.5714467e+02  -2.4118816e+02  -2.8150215e+02  -2.6117056e+02  -1.8718918e+02  -8.6056190e+01   4.9922935e+00   5.3573751e+01   4.3464903e+01  -1.9069700e+01  -1.1432950e+02  -2.0927133e+02  -2.7367419e+02  -2.8740662e+02  -2.4578826e+02  -1.5996740e+02  -5.5840658e+01   3.5199086e+01   8.3047303e+01   7.3060132e+01   8.9723644e+00  -9.0725897e+01  -1.9246851e+02  -2.6724096e+02  -2.9309613e+02  -2.6552369e+02  -1.9663421e+02  -1.0976839e+02  -3.3918005e+01   5.3205466e+00  -6.9279921e+00  -6.9849914e+01  -1.6857930e+02  -2.7689887e+02  -3.6185383e+02  -4.0320754e+02  -3.8972998e+02  -3.3233527e+02  -2.5573907e+02  -1.9006202e+02  -1.6109769e+02  -1.8137855e+02  -2.4258257e+02  -3.2241578e+02  -3.8533766e+02  -3.9893645e+02  -3.4190989e+02  -2.1173922e+02  -2.6215947e+01   1.7935427e+02   3.6572311e+02   4.9927438e+02   5.6549837e+02   5.7193160e+02   5.4058424e+02   5.0565363e+02   4.9584603e+02   5.2641079e+02   5.9677638e+02   6.9153428e+02   7.8480863e+02   8.5132402e+02   8.7529424e+02   8.5298246e+02   7.9451888e+02   7.2006929e+02   6.5224677e+02   6.0717440e+02   5.9135393e+02   5.9623534e+02   6.0419956e+02   5.9093896e+02   5.3650139e+02   4.2810187e+02   2.6957344e+02   7.8095949e+01  -1.1663780e+02  -2.7787480e+02  -3.7345400e+02  -3.8554308e+02  -3.1365305e+02  -1.8033244e+02  -2.3662411e+01   1.1364846e+02   1.9467662e+02   2.0415011e+02   1.4854053e+02   5.6696411e+01  -3.2900619e+01  -8.3756692e+01  -7.6749858e+01  -1.2553501e+01   8.7355215e+01   1.8881446e+02   2.5728211e+02   2.6834824e+02   2.2039780e+02   1.2926649e+02   2.5330025e+01  -5.7752650e+01  -9.4026384e+01  -7.5780510e+01  -7.9201295e+00   8.7229802e+01   1.8331367e+02   2.5349884e+02   2.7715905e+02   2.4961457e+02   1.7779894e+02   8.3343309e+01  -6.5135473e-01  -4.5513215e+01  -3.6406527e+01   2.4426219e+01   1.1291567e+02   1.9847440e+02   2.5030721e+02   2.5271313e+02   2.1038366e+02   1.3968039e+02   6.5499258e+01   1.2076617e+01  -4.5998240e+00   2.0336136e+01   8.0027582e+01   1.5673862e+02   2.2955823e+02   2.7380403e+02   2.7508770e+02   2.2710256e+02   1.4224240e+02   4.3819842e+01  -3.3606852e+01  -6.5030522e+01  -3.5772539e+01   5.0266682e+01   1.6595099e+02   2.7612555e+02   3.4742519e+02   3.5755770e+02   3.0510602e+02   2.0999831e+02   1.0549258e+02   2.5269449e+01  -4.5348473e+00   2.2810347e+01   9.9363934e+01   1.9886058e+02   2.9089923e+02   3.4665842e+02   3.5102759e+02   3.0424317e+02   2.2425018e+02   1.3770651e+02   7.5266207e+01   5.4965323e+01   8.2812103e+01   1.4996161e+02   2.3337082e+02   3.0905963e+02   3.5561629e+02   3.5986347e+02   3.2187270e+02   2.5369428e+02   1.7887759e+02   1.2254150e+02   1.0787549e+02   1.4614490e+02   2.3147717e+02   3.3917270e+02   4.3650729e+02   4.9254203e+02   4.8780107e+02   4.2502685e+02   3.2446843e+02   2.1990416e+02   1.4428365e+02   1.2295995e+02   1.6061937e+02   2.4816123e+02   3.5820346e+02   4.5909875e+02   5.2190968e+02   5.2917182e+02   4.7966543e+02   3.8969630e+02   2.8914054e+02   2.1217767e+02   1.8568595e+02   2.1836874e+02   3.0179378e+02   4.0894274e+02   5.0409919e+02   5.5451373e+02   5.4572388e+02   4.8084899e+02   3.8748698e+02   3.0058303e+02   2.5026548e+02   2.5462159e+02   3.1240612e+02   4.0372860e+02   5.0015833e+02   5.7293475e+02   6.0264011e+02   5.8121018e+02   5.1568364e+02   4.2645426e+02   3.4055570e+02   2.8710926e+02   2.8598601e+02   3.3867889e+02   4.3036301e+02   5.3246886e+02   6.1133082e+02   6.4116848e+02   6.1522696e+02   5.4248581e+02   4.4875679e+02   3.6277782e+02   3.0950453e+02   3.0268870e+02   3.4173626e+02   4.1378294e+02   5.0025695e+02   5.7944549e+02   6.2730972e+02   6.3040546e+02   5.8438635e+02   5.0299358e+02   4.0920925e+02   3.3780215e+02   3.1632478e+02   3.5646607e+02   4.4557404e+02   5.4949111e+02   6.3112813e+02   6.5799600e+02   6.2160390e+02   5.3732003e+02   4.3675471e+02   3.5249461e+02   3.1052152e+02   3.1840462e+02   3.7311757e+02   4.5517379e+02   5.4206881e+02   6.0831049e+02   6.3415858e+02   6.0995540e+02   5.3868970e+02   4.3995350e+02   3.4524170e+02   2.8303422e+02   2.7381252e+02   3.1886763e+02   4.0355015e+02   5.0087805e+02   5.7871211e+02   6.1357494e+02   5.9099121e+02   5.1802543e+02   4.1423286e+02   3.1302496e+02   2.4391191e+02   2.2975300e+02   2.7280970e+02   3.5616551e+02   4.4934767e+02   5.1931483e+02   5.4189835e+02   5.0964746e+02   4.3587322e+02   3.4323965e+02   2.6301296e+02   2.1848153e+02   2.2465235e+02   2.7791927e+02   3.5911901e+02   4.3865254e+02   4.8771199e+02   4.8464352e+02   4.2642263e+02   3.2913565e+02   2.1996119e+02   1.2891153e+02   8.0960844e+01   8.2715082e+01   1.2829626e+02   1.9977300e+02   2.7270081e+02   3.2270193e+02   3.3704197e+02   3.0715792e+02   2.4106373e+02   1.5219158e+02   6.2001023e+01  -5.9668083e+00  -3.3422573e+01  -1.4405812e+01   4.6171812e+01   1.2602314e+02   1.9591981e+02   2.2703070e+02   2.0217461e+02   1.2199907e+02   9.7339177e+00  -9.7086856e+01  -1.6424852e+02  -1.6871197e+02  -1.1516818e+02  -2.9147954e+01   5.0695501e+01   8.8954280e+01   6.8449124e+01  -6.0854060e+00  -1.1146644e+02  -2.1387150e+02  -2.8445749e+02  -3.0702204e+02  -2.7859268e+02  -2.1248519e+02  -1.2881987e+02  -5.2262991e+01  -8.2961060e+00  -1.2117922e+01  -6.6091749e+01  -1.5952569e+02  -2.7087327e+02  -3.6771084e+02  -4.2364140e+02  -4.2097561e+02  -3.6375004e+02  -2.7212833e+02  -1.7702322e+02  -1.1329748e+02  -1.0366862e+02  -1.5320882e+02  -2.4817417e+02  -3.5918987e+02  -4.5110531e+02  -4.9666594e+02  -4.8089875e+02  -4.1285423e+02  -3.1584734e+02  -2.2511224e+02  -1.7325788e+02  -1.7961440e+02  -2.3926586e+02  -3.3337136e+02  -4.2866641e+02  -4.9336342e+02  -5.0656985e+02  -4.6417219e+02  -3.7994720e+02  -2.8119850e+02  -1.9798243e+02  -1.5941407e+02  -1.7617230e+02  -2.4394890e+02  -3.4232870e+02  -4.3884772e+02  -5.0531386e+02  -5.2042050e+02  -4.7958068e+02  -3.9278880e+02  -2.8690160e+02  -1.9050992e+02  -1.3098254e+02  -1.2484688e+02  -1.7324584e+02  -2.5990925e+02  -3.5631912e+02  -4.2809329e+02  -4.5159096e+02  -4.1668107e+02  -3.3453084e+02  -2.3186978e+02  -1.4195319e+02  -9.3820764e+01  -9.9981589e+01  -1.5618690e+02  -2.4062947e+02  -3.2315862e+02  -3.7648693e+02  -3.8540569e+02  -3.4802899e+02  -2.8005004e+02  -2.0460487e+02  -1.4708153e+02  -1.2452375e+02  -1.4273598e+02  -1.9565265e+02  -2.6716352e+02  -3.3382914e+02  -3.7534092e+02  -3.7668762e+02  -3.3507327e+02  -2.6066468e+02  -1.7490061e+02  -1.0383908e+02  -7.2294626e+01  -9.0913411e+01  -1.5772336e+02  -2.5327162e+02  -3.4767998e+02  -4.1237871e+02  -4.2542371e+02  -3.8043540e+02  -2.9227664e+02  -1.8826601e+02  -1.0246567e+02  -6.5830360e+01  -8.8359631e+01  -1.6474547e+02  -2.6656146e+02  -3.6126438e+02  -4.1574006e+02  -4.1432002e+02  -3.5837592e+02  -2.6770937e+02  -1.6963375e+02  -9.5354381e+01  -6.6441837e+01  -9.0481151e+01  -1.5827329e+02  -2.4749409e+02  -3.2595244e+02  -3.6610299e+02  -3.5073681e+02  -2.8403262e+02  -1.8731990e+02  -9.1606673e+01  -2.8613697e+01  -1.7188734e+01  -6.2185194e+01  -1.5010826e+02  -2.5330952e+02  -3.4373318e+02  -3.9575462e+02  -3.9397507e+02  -3.4016159e+02  -2.5274727e+02  -1.5904098e+02  -8.8984457e+01  -6.5396044e+01  -9.6803616e+01  -1.7314103e+02  -2.7302896e+02  -3.6657876e+02  -4.2821851e+02  -4.4140190e+02  -4.0342837e+02  -3.2985550e+02  -2.4572017e+02  -1.7944691e+02  -1.5637657e+02  -1.8695921e+02  -2.6278878e+02  -3.6109320e+02  -4.5053448e+02  -5.0478789e+02  -5.0979893e+02  -4.6704703e+02  -3.9643589e+02  -3.2716544e+02  -2.8756225e+02  -2.9683103e+02  -3.5572099e+02  -4.5016761e+02  -5.5037107e+02  -6.2702103e+02  -6.5703717e+02  -6.3469737e+02  -5.6753183e+02  -4.8071196e+02  -3.9742409e+02  -3.4332729e+02  -3.3213338e+02  -3.6731647e+02  -4.3996457e+02  -5.3314754e+02  -6.2041522e+02  -6.7572244e+02  -6.8062343e+02  -6.3013264e+02  -5.4003525e+02  -4.3920246e+02  -3.6205936e+02  -3.3425531e+02  -3.6751233e+02  -4.4759993e+02  -5.4973784e+02  -6.3798740e+02  -6.8791980e+02  -6.8344807e+02  -6.3231139e+02  -5.5110534e+02  -4.7051183e+02  -4.1692747e+02  -4.0952560e+02  -4.4964414e+02  -5.2531661e+02  -6.1110327e+02  -6.7766711e+02  -7.0332743e+02  -6.7950231e+02  -6.1362467e+02  -5.2656960e+02  -4.4639694e+02  -3.9972438e+02  -4.0081743e+02  -4.5426349e+02  -5.4395636e+02  -6.4642060e+02  -7.2679384e+02  -7.5961050e+02  -7.3226632e+02  -6.5077953e+02  -5.4096238e+02  -4.4090002e+02  -3.8213058e+02  -3.8265218e+02  -4.3961588e+02  -5.3138292e+02  -6.2591093e+02  -6.9373250e+02  -7.1664840e+02  -6.8903849e+02  -6.2346665e+02  -5.3876989e+02  -4.6359330e+02  -4.2178818e+02  -4.2676971e+02  -4.7761140e+02  -5.5544363e+02  -6.2501148e+02  -6.5258483e+02  -6.1233381e+02  -4.9913598e+02  -3.2961023e+02  -1.3671383e+02   4.2006004e+01   1.7600940e+02   2.4811099e+02   2.6187355e+02   2.3161141e+02   1.8329985e+02   1.4232711e+02   1.2804897e+02   1.5117935e+02   2.1015055e+02   2.8899013e+02   3.6149598e+02   4.0511226e+02   4.0235913e+02   3.5212659e+02   2.6845946e+02   1.7721819e+02   1.0363434e+02   6.5769070e+01   6.4910247e+01   8.5001410e+01   9.7586015e+01   7.2988854e+01  -1.0892950e+01  -1.5632254e+02  -3.4361462e+02  -5.3647964e+02  -6.9036261e+02  -7.6871819e+02  -7.5522702e+02  -6.5998663e+02  -5.1469185e+02  -3.6143802e+02  -2.3951393e+02  -1.7384393e+02  -1.7117228e+02  -2.1952044e+02  -2.9506985e+02  -3.6787121e+02  -4.1022275e+02  -4.0369306e+02  -3.4687121e+02  -2.5097326e+02  -1.4208544e+02  -5.1549933e+01  -3.2449834e+00  -1.2875933e+01  -7.5758381e+01  -1.7414294e+02  -2.7435818e+02  -3.4250577e+02  -3.5262041e+02  -2.9537372e+02  -1.8950210e+02  -6.7820410e+01   2.9588124e+01   7.1198023e+01   4.6754550e+01  -2.6575467e+01  -1.1860330e+02  -1.9628166e+02  -2.3532592e+02  -2.2720926e+02  -1.7865855e+02  -1.0290854e+02  -1.8658555e+01   5.3624651e+01   9.5245530e+01   9.3585402e+01   4.8827178e+01  -2.7768400e+01  -1.0514441e+02  -1.5492827e+02  -1.5204237e+02  -9.6658183e+01  -5.8844173e+00   8.6720398e+01   1.5105066e+02   1.6790458e+02   1.3693233e+02   7.1827877e+01  -4.9638291e+00  -6.9990432e+01  -1.0551787e+02  -9.9124639e+01  -4.9404356e+01   3.1744870e+01   1.2303606e+02   1.9603993e+02   2.2782003e+02   2.0588573e+02   1.3624596e+02   3.9909517e+01  -5.2050332e+01  -1.1033525e+02  -1.1802936e+02  -7.3237760e+01   1.0707967e+01   1.0620272e+02   1.8455743e+02   2.2147439e+02   2.0577653e+02   1.4424836e+02   5.8021402e+01  -2.1310667e+01  -6.5293657e+01  -5.8832769e+01  -4.3846011e+00   7.7222044e+01   1.5494653e+02   2.0068141e+02   1.9842315e+02   1.4750087e+02   6.4843059e+01  -2.6138859e+01  -9.9733829e+01  -1.3755070e+02  -1.2947271e+02  -8.1373629e+01  -7.3783972e+00   6.8796955e+01   1.2130850e+02   1.2942563e+02   8.3587135e+01  -6.6786634e+00  -1.1828119e+02  -2.1511132e+02  -2.6888462e+02  -2.6114790e+02  -1.9789761e+02  -1.0465828e+02  -1.5637062e+01   3.3858566e+01   2.6683701e+01  -3.4150147e+01  -1.2564869e+02  -2.1741944e+02  -2.7918035e+02  -2.9145569e+02  -2.5335139e+02  -1.7592748e+02  -8.0106323e+01   1.1188072e+01   7.7433722e+01   1.0541960e+02   9.0788367e+01   4.1431177e+01  -2.2385177e+01  -7.4579519e+01  -8.8736571e+01  -4.9439813e+01   3.9919178e+01   1.5377405e+02   2.5562430e+02   3.1055940e+02   2.9800073e+02   2.2283828e+02   1.1129145e+02   4.5144995e+00  -6.4343529e+01  -7.5770656e+01  -3.3131963e+01   4.5808493e+01   1.3190455e+02   1.9923483e+02   2.2988137e+02   2.1576583e+02   1.6172779e+02   8.0228851e+01  -1.0217933e+01  -8.6111146e+01  -1.2662243e+02  -1.1877666e+02  -6.3870758e+01   1.9621947e+01   1.0464989e+02   1.5823467e+02   1.5807764e+02   1.0336784e+02   1.0265381e+01  -8.7751461e+01  -1.5583745e+02  -1.7013527e+02  -1.2651602e+02  -4.3534586e+01   4.7025461e+01   1.1389732e+02   1.3386228e+02   1.0398554e+02   3.3889743e+01  -5.3324617e+01  -1.3117934e+02  -1.7898597e+02  -1.8113374e+02  -1.3750434e+02  -5.7934544e+01   3.5765172e+01   1.1598127e+02   1.5805312e+02   1.4749459e+02   8.6045159e+01  -7.7568606e+00  -1.0403637e+02  -1.7402624e+02  -1.9348700e+02  -1.5510072e+02  -7.1803563e+01   2.9361569e+01   1.1554210e+02   1.5886973e+02   1.4362587e+02   8.0180862e+01  -7.5341151e+00  -8.7510859e+01  -1.3400874e+02  -1.3275530e+02  -8.9054212e+01  -1.7853177e+01   5.9551178e+01   1.1976990e+02   1.4886743e+02   1.3711415e+02   8.6446512e+01   1.2521766e+01  -6.1001729e+01  -1.0778703e+02  -1.0773157e+02  -5.6587299e+01   2.8537048e+01   1.1896944e+02   1.8403406e+02   2.0062995e+02   1.6374572e+02   8.5482008e+01  -8.4093293e+00  -8.8702486e+01  -1.3130817e+02  -1.2324779e+02  -6.7118073e+01   2.0710228e+01   1.1623456e+02   1.9067157e+02   2.2319895e+02   2.0148398e+02   1.3160228e+02   3.7422539e+01  -5.1699683e+01  -1.0457933e+02  -1.0312549e+02  -4.4687350e+01   4.9870032e+01   1.4936264e+02   2.2107171e+02   2.4228637e+02   2.1054165e+02   1.3923724e+02   5.1813140e+01  -2.4590132e+01  -6.9608564e+01  -7.0206825e+01  -2.9546424e+01   4.0399583e+01   1.1835908e+02   1.7862072e+02   1.9838007e+02   1.7055097e+02   1.0183416e+02   1.4360709e+01  -5.9025268e+01  -9.3372186e+01  -7.4027400e+01  -9.1341819e+00   8.1243165e+01   1.6410664e+02   2.1172470e+02   2.0810960e+02   1.5274126e+02   6.3381655e+01  -3.0609425e+01  -1.0228974e+02  -1.2992876e+02  -1.0846013e+02  -4.4900238e+01   3.8668874e+01   1.2121813e+02   1.7902828e+02   1.9812458e+02   1.7287804e+02   1.0767665e+02   2.0152507e+01  -6.4804881e+01  -1.1767247e+02  -1.1946132e+02  -6.4810610e+01   2.5293131e+01   1.2074219e+02   1.8445866e+02   1.9551257e+02   1.5126291e+02   6.7540474e+01  -2.5509268e+01  -9.8582509e+01  -1.3174066e+02  -1.1522516e+02  -5.8034254e+01   2.4906769e+01   1.0840953e+02   1.6439079e+02   1.7593818e+02   1.3515509e+02   5.3893540e+01  -4.4880691e+01  -1.2762441e+02  -1.6793491e+02  -1.5234420e+02  -8.6694540e+01   6.9905670e+00   9.7467569e+01   1.5484968e+02   1.6174716e+02   1.1505902e+02   2.9575940e+01  -6.8787488e+01  -1.4859746e+02  -1.8758668e+02  -1.7232593e+02  -1.1143919e+02  -2.5351940e+01   5.6683582e+01   1.0603174e+02   1.0454572e+02   5.2020974e+01  -3.8511983e+01  -1.3673349e+02  -2.1361229e+02  -2.4283995e+02  -2.1607564e+02  -1.4166202e+02  -4.6934789e+01   3.6008526e+01   7.5749162e+01   5.9150721e+01  -8.6560644e+00  -1.0552762e+02  -1.9873692e+02  -2.6184744e+02  -2.7818727e+02  -2.4587893e+02  -1.8015634e+02  -1.0120754e+02  -3.2535885e+01   5.7292555e+00   4.7902048e-01  -5.2536132e+01  -1.4222627e+02  -2.4488078e+02  -3.2926472e+02  -3.6719291e+02  -3.4453058e+02  -2.6739335e+02  -1.6185564e+02  -6.7231174e+01  -1.5401967e+01  -2.6289988e+01  -9.4191968e+01  -1.9345409e+02  -2.9124889e+02  -3.5658175e+02  -3.7062447e+02  -3.3237575e+02  -2.5751545e+02  -1.6886931e+02  -9.1636931e+01  -4.7897861e+01  -4.7462523e+01  -8.9700059e+01  -1.6069121e+02  -2.3633847e+02  -2.9246593e+02  -3.0597471e+02  -2.7109759e+02  -1.9572469e+02  -1.0235623e+02  -2.3966489e+01   1.4617714e+01  -2.6434679e-01  -6.2273099e+01  -1.4966435e+02  -2.3282214e+02  -2.8665233e+02  -2.9084041e+02  -2.4601599e+02  -1.6185066e+02  -6.2734905e+01   2.2589268e+01   6.6771434e+01   5.5865050e+01  -8.9421810e+00  -1.0605963e+02  -2.0512035e+02  -2.7237303e+02  -2.8683080e+02  -2.4725368e+02  -1.6806312e+02  -7.8916145e+01  -8.3788632e+00   1.9613142e+01  -1.5621156e+00  -6.6852419e+01  -1.5556317e+02  -2.4111501e+02  -2.9633907e+02  -3.0330659e+02  -2.6084141e+02  -1.8393311e+02  -9.9912886e+01  -4.1942623e+01  -3.0558507e+01  -7.1320392e+01  -1.5094467e+02  -2.4486078e+02  -3.2438701e+02  -3.6823402e+02  -3.6328932e+02  -3.1385970e+02  -2.3267712e+02  -1.4264957e+02  -7.0021556e+01  -3.8762037e+01  -6.2248937e+01  -1.3658875e+02  -2.3942997e+02  -3.3837401e+02  -3.9961892e+02  -4.0075939e+02  -3.4293917e+02  -2.4472081e+02  -1.4072881e+02  -6.1791817e+01  -3.1425767e+01  -5.4702357e+01  -1.1877625e+02  -2.0084469e+02  -2.7356991e+02  -3.1256495e+02  -3.0688724e+02  -2.5781009e+02  -1.8034509e+02  -9.7680224e+01  -3.7335692e+01  -1.7895202e+01  -4.6306394e+01  -1.1291551e+02  -1.9587607e+02  -2.6683927e+02  -3.0245142e+02  -2.8659786e+02  -2.2172991e+02  -1.2386718e+02  -2.0577513e+01   5.5147014e+01   8.2197225e+01   5.0849405e+01  -2.7631013e+01  -1.2481390e+02  -2.0914781e+02  -2.4966009e+02  -2.3421811e+02  -1.6671242e+02  -6.7824809e+01   3.3226063e+01   1.0696431e+02   1.3399980e+02   1.0745521e+02   3.7434014e+01  -5.6925714e+01  -1.4353466e+02  -1.9497654e+02  -1.9258948e+02  -1.3642400e+02  -4.6824666e+01   4.4889670e+01   1.0560040e+02   1.1446004e+02   6.9940814e+01  -1.0079969e+01  -9.6538073e+01  -1.6233609e+02  -1.8779775e+02  -1.6336974e+02  -9.3082543e+01   7.3523345e+00   1.2020324e+02   2.2199695e+02   2.9442803e+02   3.3102444e+02   3.4073292e+02   3.4621801e+02   3.7036769e+02   4.3172174e+02   5.3089092e+02   6.5240448e+02   7.7200848e+02   8.6169355e+02   9.0821543e+02   9.0407068e+02   8.5706208e+02   7.7867594e+02   6.8715186e+02   6.0182047e+02   5.4547627e+02   5.3685715e+02   5.8262532e+02   6.6980052e+02   7.6685206e+02   8.3016710e+02   8.2185831e+02   7.2309320e+02   5.4424998e+02   3.2086830e+02   1.0303424e+02  -7.0019545e+01  -1.7507135e+02  -2.1352496e+02  -2.0564650e+02  -1.7632139e+02  -1.4667216e+02  -1.2956636e+02  -1.2775770e+02  -1.3823382e+02  -1.5066726e+02  -1.5322170e+02  -1.3488116e+02  -8.7295908e+01  -1.3931754e+01   6.9185372e+01   1.3810149e+02   1.7150673e+02   1.5618225e+02   9.4610641e+01   4.2625680e+00  -9.0224924e+01  -1.6112735e+02  -1.8907369e+02  -1.6583551e+02  -9.8297141e+01  -5.9795089e+00   8.2769533e+01   1.3842175e+02   1.4067155e+02   8.7917002e+01  -1.6009301e+00  -9.9709685e+01  -1.7136007e+02  -1.9591710e+02  -1.6471001e+02  -9.1751869e+01  -9.3307838e-02   8.0000546e+01   1.2252232e+02   1.1379074e+02   5.4518861e+01  -3.7422697e+01  -1.3014309e+02  -1.9378603e+02  -2.0757883e+02  -1.6495387e+02  -8.1762387e+01   1.1820124e+01   8.3387541e+01   1.0679559e+02   7.2997961e+01  -1.0303227e+01  -1.1738103e+02  -2.1504565e+02  -2.7395344e+02  -2.7668481e+02  -2.2568108e+02  -1.3813064e+02  -4.2509779e+01   3.1806373e+01   6.4187920e+01   4.7571539e+01  -1.4037285e+01  -1.0149681e+02  -1.9127553e+02  -2.5785328e+02  -2.8377289e+02  -2.6045404e+02  -1.9792175e+02  -1.1623226e+02  -4.5076469e+01  -9.2609980e+00  -2.2120383e+01  -8.1286432e+01  -1.6583724e+02  -2.4911877e+02  -3.0303184e+02  -3.1078936e+02  -2.7032351e+02  -1.9560464e+02  -1.1377387e+02  -5.1661627e+01  -3.1429910e+01  -6.1358003e+01  -1.3110381e+02  -2.1633281e+02  -2.8987857e+02  -3.2813774e+02  -3.1867875e+02  -2.6529002e+02  -1.8383168e+02  -1.0092186e+02  -4.0146621e+01  -1.8602936e+01  -4.5803284e+01  -1.1321937e+02  -2.0526084e+02  -2.9374547e+02  -3.5348038e+02  -3.6389618e+02  -3.1897896e+02  -2.3392782e+02  -1.3365214e+02  -5.0872341e+01  -1.2670210e+01  -2.8506842e+01  -9.1931977e+01  -1.8070198e+02  -2.6529215e+02  -3.1738346e+02  -3.2227768e+02  -2.7654512e+02  -1.9742575e+02  -1.0919109e+02  -4.2294250e+01  -1.9163984e+01  -4.7609582e+01  -1.1595909e+02  -1.9852784e+02  -2.6729654e+02  -2.9532210e+02  -2.7284501e+02  -2.0447463e+02  -1.1209476e+02  -2.2830269e+01   3.7992800e+01   5.1990521e+01   1.5024609e+01  -6.1370139e+01  -1.5390867e+02  -2.3258604e+02  -2.7225199e+02  -2.5866582e+02  -1.9244951e+02  -9.1666485e+01   1.3527948e+01   9.0141258e+01   1.1455018e+02   8.0720603e+01   1.4576042e+00  -9.3707904e+01  -1.7167525e+02  -2.0536128e+02  -1.8465418e+02  -1.2019718e+02  -3.5805029e+01   4.0962999e+01   8.6999688e+01   9.1659627e+01   5.5692495e+01  -7.7955459e+00  -8.1647345e+01  -1.4182861e+02  -1.6783076e+02  -1.4527090e+02  -7.7241504e+01   1.7668328e+01   1.1204051e+02   1.7483473e+02   1.8616546e+02   1.4481619e+02   6.6705803e+01  -1.8854704e+01  -8.0600086e+01  -9.9736210e+01  -7.0322435e+01  -4.2311819e+00   7.9280006e+01   1.5462036e+02   2.0029374e+02   2.0468785e+02   1.6440990e+02   9.2456168e+01   8.1535581e+00  -6.2515197e+01  -9.6434643e+01  -8.0688018e+01  -1.8358624e+01   6.9087793e+01   1.5299572e+02   2.0298183e+02   2.0563904e+02   1.6070297e+02   8.8039570e+01   1.2473717e+01  -4.0867957e+01  -5.6914071e+01  -3.3700869e+01   2.1138054e+01   9.2232312e+01   1.5975275e+02   2.0375478e+02   2.0957368e+02   1.7256628e+02   1.0167201e+02   1.9934872e+01  -4.5248559e+01  -6.9334195e+01  -4.1319490e+01   2.9245770e+01   1.2158602e+02   2.0530536e+02   2.5283535e+02   2.4769055e+02   1.8987441e+02   9.9008954e+01   3.4521956e+00  -6.6723744e+01  -8.8011581e+01  -5.4035422e+01   2.2699936e+01   1.1644212e+02   1.9805025e+02   2.4157163e+02   2.3447849e+02   1.7793672e+02   9.0748845e+01  -3.6828659e+00  -7.5434793e+01  -1.0527496e+02  -8.2064934e+01  -1.5311878e+01   7.3611752e+01   1.5535269e+02   2.0102505e+02   1.9418559e+02   1.3577858e+02   4.5792539e+01  -4.8927135e+01  -1.1870822e+02  -1.4301130e+02  -1.1543057e+02  -4.9802096e+01   2.9938628e+01   9.3816039e+01   1.1719508e+02   8.9459059e+01   1.5505643e+01  -8.4075133e+01  -1.8156766e+02  -2.5134129e+02  -2.7674955e+02  -2.5485684e+02  -1.9814458e+02  -1.2995642e+02  -7.5129175e+01  -5.7481596e+01  -8.9202621e+01  -1.6657653e+02  -2.7009668e+02  -3.7229607e+02  -4.4711432e+02  -4.7680962e+02  -4.6057107e+02  -4.0904393e+02  -3.4660852e+02  -2.9693139e+02  -2.7949761e+02  -3.0315365e+02  -3.6304051e+02  -4.4288616e+02  -5.1790602e+02  -5.6308500e+02  -5.5785476e+02  -4.9938089e+02  -3.9776785e+02  -2.8212701e+02  -1.8610435e+02  -1.3760223e+02  -1.4868663e+02  -2.0996641e+02  -2.9429056e+02  -3.6289687e+02  -3.8571117e+02  -3.5180138e+02  -2.7025907e+02  -1.6792778e+02  -7.6052319e+01  -2.1557727e+01  -1.2752904e+01  -4.7444853e+01  -1.0968054e+02  -1.8085329e+02  -2.4319075e+02  -2.8023572e+02  -2.7828944e+02  -2.3711567e+02  -1.6439785e+02  -8.0120444e+01  -1.3668125e+01   9.5138127e+00  -2.3284605e+01  -1.0395230e+02  -2.0683971e+02  -2.9634972e+02  -3.4340091e+02  -3.3273141e+02  -2.7039020e+02  -1.7898829e+02  -8.8965629e+01  -2.6727030e+01  -1.0501445e+01  -4.1861814e+01  -1.0898310e+02  -1.8818936e+02  -2.5463961e+02  -2.8367092e+02  -2.6378647e+02  -1.9971289e+02  -1.1021754e+02  -2.5063376e+01   2.6954769e+01   2.9006745e+01  -2.0643211e+01  -1.0235462e+02  -1.8810190e+02  -2.4946767e+02  -2.6707944e+02  -2.3646159e+02  -1.6877813e+02  -8.2255197e+01  -7.7703229e-01   5.4303836e+01   6.8205794e+01   3.6715896e+01  -3.2773706e+01  -1.2152387e+02  -2.0164096e+02  -2.4458576e+02  -2.3296108e+02  -1.6809333e+02  -7.0271484e+01   2.8782951e+01   9.6115843e+01   1.1146093e+02   7.5026390e+01   3.0312160e-01  -8.4349819e+01  -1.5291199e+02  -1.8305516e+02  -1.6663579e+02  -1.0492083e+02  -1.5517154e+01   7.6321229e+01   1.4384683e+02   1.6548144e+02   1.3319523e+02   6.2866446e+01  -2.0498374e+01  -8.1148285e+01  -9.4879439e+01  -5.0241273e+01   3.8667834e+01   1.4672660e+02   2.4283917e+02   2.9825213e+02   3.0015354e+02   2.5179209e+02   1.7046640e+02   8.4376984e+01   2.1979290e+01   6.5997233e+00   4.6314492e+01   1.3036955e+02   2.3696736e+02   3.3252957e+02   3.8911386e+02   3.8897496e+02   3.3353686e+02   2.4319384e+02   1.4901482e+02   8.1056191e+01   6.3071294e+01   1.0059207e+02   1.8259271e+02   2.8047147e+02   3.6537968e+02   4.0953297e+02   4.0050829e+02   3.4086036e+02   2.5257842e+02   1.6356507e+02   1.0092083e+02   8.4844778e+01   1.1808470e+02   1.8704964e+02   2.6919731e+02   3.3561081e+02   3.6232937e+02   3.3843050e+02   2.6725794e+02   1.6942568e+02   7.2905218e+01   8.0838986e+00  -6.3419309e+00   3.6283385e+01   1.2302418e+02   2.2710894e+02   3.1579856e+02   3.5885565e+02   3.4158818e+02   2.6989545e+02   1.6702234e+02   6.7421280e+01   3.6852753e+00  -7.5484998e+00   3.1181417e+01   1.0379997e+02   1.8461834e+02   2.4827363e+02   2.8113466e+02   2.7615803e+02   2.3668182e+02   1.7295137e+02   1.0186387e+02   4.6952538e+01   2.6514029e+01   5.3732373e+01   1.2468553e+02   2.1554839e+02   2.9563425e+02   3.3268121e+02   3.1239056e+02   2.3978581e+02   1.3930601e+02   4.5241051e+01  -1.4383069e+01  -2.4537860e+01   1.6267781e+01   9.2431215e+01   1.7787454e+02   2.4536650e+02   2.7188468e+02   2.4501660e+02   1.7202276e+02   7.3571445e+01  -1.8137694e+01  -7.3667441e+01  -7.4083991e+01  -2.3350772e+01   6.1349350e+01   1.4946453e+02   2.1254431e+02   2.3161949e+02   1.9949337e+02   1.2761771e+02   3.6643044e+01  -4.5560563e+01  -9.2167450e+01  -8.8972205e+01  -3.8530806e+01   3.9772753e+01   1.1974304e+02   1.7284960e+02   1.8343171e+02   1.5066922e+02   8.4079732e+01   3.7429733e+00  -7.1849648e+01  -1.2501465e+02  -1.4219411e+02  -1.1968981e+02  -6.4284663e+01   6.1333176e+00   6.6220404e+01   9.5320901e+01   8.3162806e+01   4.1946014e+01   1.4055444e-01  -9.9890146e+00   3.6256996e+01   1.4476853e+02   3.0014094e+02   4.7339363e+02   6.3267020e+02   7.4910176e+02   8.0300195e+02   7.9245399e+02   7.2518443e+02   6.2312705e+02   5.1777828e+02   4.4079189e+02   4.1282104e+02   4.4121360e+02   5.1292894e+02   6.0137129e+02   6.7126001e+02   6.9768815e+02   6.6546460e+02   5.7771306e+02   4.5222553e+02   3.1275349e+02   1.8172315e+02   7.6363533e+01  -1.2210367e+00  -6.0773248e+01  -1.1981511e+02  -1.9474614e+02  -2.9097578e+02  -4.0094805e+02  -5.0698678e+02  -5.8233978e+02  -6.0912793e+02  -5.7564669e+02  -4.8902987e+02  -3.6780674e+02  -2.3819975e+02  -1.2769781e+02  -6.1957222e+01  -5.3943225e+01  -1.0215236e+02  -1.9277155e+02  -2.9704994e+02  -3.8249046e+02  -4.2124414e+02  -4.0070393e+02  -3.2787123e+02  -2.2742096e+02  -1.3208781e+02  -7.1492972e+01  -6.1347024e+01  -1.0184131e+02  -1.7801491e+02  -2.6628862e+02  -3.4170199e+02  -3.8220505e+02  -3.7802363e+02  -3.2873977e+02  -2.4610851e+02  -1.5632342e+02  -8.7904413e+01  -6.7142748e+01  -1.0185565e+02  -1.8213662e+02  -2.7617892e+02  -3.4661789e+02  -3.6570438e+02  -3.2235408e+02  -2.3479918e+02  -1.3198208e+02  -4.9522367e+01  -1.2512689e+01  -2.9100692e+01  -9.0565666e+01  -1.7647997e+02  -2.6091457e+02  -3.2002870e+02  -3.3529570e+02  -3.0140918e+02  -2.2665351e+02  -1.3197417e+02  -4.4679898e+01   8.8917774e+00   1.4761944e+01  -2.7930562e+01  -1.0331719e+02  -1.8520671e+02  -2.4877673e+02  -2.7276609e+02  -2.4722769e+02  -1.7768635e+02  -8.4021400e+01   7.9156900e+00   6.9572432e+01   8.0878256e+01   3.7716179e+01  -4.4744375e+01  -1.3762886e+02  -2.0704987e+02  -2.2910980e+02  -1.9431595e+02  -1.1434503e+02  -1.4590572e+01   7.3393948e+01   1.2412288e+02   1.2310505e+02   7.4914467e+01  -1.9113521e+00  -7.8798853e+01  -1.2599285e+02  -1.2649532e+02  -7.5214618e+01   1.3656400e+01   1.1148630e+02   1.8705147e+02   2.1587425e+02   1.8906271e+02   1.1713881e+02   2.6624590e+01  -5.5165786e+01  -9.9144797e+01  -9.4398447e+01  -4.3200546e+01   3.7825946e+01   1.2476751e+02   1.9339461e+02   2.2549624e+02   2.1358662e+02   1.6052112e+02   8.3873141e+01   5.6033018e+00  -4.7938614e+01  -5.7787668e+01  -1.8098369e+01   5.9995031e+01   1.5165969e+02   2.2840173e+02   2.6326942e+02   2.4425896e+02   1.8053983e+02   9.2462325e+01   9.9894052e+00  -4.1333197e+01  -4.3961302e+01   2.2743615e+00   8.4740521e+01   1.7566478e+02   2.4739893e+02   2.7563094e+02   2.4858673e+02   1.7390365e+02   7.5244337e+01  -1.5593630e+01  -6.8871015e+01  -6.7460685e+01  -1.2021359e+01   7.6868477e+01   1.7166336e+02   2.4330818e+02   2.7249604e+02   2.4976659e+02   1.8517703e+02   9.7695896e+01   1.5159846e+01  -3.5947404e+01  -3.8940338e+01   7.1003936e+00   8.8420251e+01   1.7570267e+02   2.4055072e+02   2.6161042e+02   2.3240645e+02   1.6469958e+02   8.0616402e+01   9.4826028e+00  -2.8329655e+01  -1.9592175e+01   3.3186596e+01   1.1424493e+02   1.9697181e+02   2.5549288e+02   2.6967535e+02   2.3665240e+02   1.6476268e+02   7.7274043e+01   1.9359562e+00  -3.9252162e+01  -3.4093093e+01   1.4524301e+01   9.2492007e+01   1.7723194e+02   2.3949216e+02   2.5837636e+02   2.2371462e+02   1.4273391e+02   3.9490296e+01  -4.9797571e+01  -9.6062202e+01  -8.1369386e+01  -1.6017863e+01   7.6551001e+01   1.6167761e+02   2.1034061e+02   2.1010619e+02   1.6330554e+02   8.7468057e+01   4.5612573e+00  -6.1745672e+01  -9.7304625e+01  -9.1233979e+01  -4.6702390e+01   2.3458621e+01   9.8859317e+01   1.5440431e+02   1.7504189e+02   1.5159322e+02   9.5785546e+01   2.5155425e+01  -3.5860324e+01  -6.8102385e+01  -5.8181214e+01  -1.1870116e+01   5.8699667e+01   1.3046960e+02   1.7945159e+02   1.8540610e+02   1.4541301e+02   6.6541218e+01  -2.6606244e+01  -1.0505170e+02  -1.4269751e+02  -1.2771337e+02  -6.4689702e+01   2.6454348e+01   1.1714044e+02   1.7824480e+02   1.9274091e+02   1.5810766e+02   8.4776883e+01  -3.5162689e+00  -7.7985003e+01  -1.1699752e+02  -1.0928923e+02  -5.7874658e+01   2.0265049e+01   9.9966593e+01   1.5395509e+02   1.6428458e+02   1.2443838e+02   4.7455929e+01  -4.0948308e+01  -1.0969778e+02  -1.3442103e+02  -1.0535392e+02  -3.1854867e+01   6.0277536e+01   1.3882346e+02   1.7724071e+02   1.6391643e+02   1.0291467e+02   1.6687090e+01  -6.9168909e+01  -1.2542789e+02  -1.3729970e+02  -1.0112857e+02  -2.7574075e+01   6.0433062e+01   1.3399242e+02   1.7145863e+02   1.6163706e+02   1.0632619e+02   2.4751342e+01  -5.6930294e+01  -1.1329485e+02  -1.2471462e+02  -8.9920005e+01  -1.6964113e+01   7.0031974e+01   1.4530427e+02   1.8265713e+02   1.7050820e+02   1.0919195e+02   1.9150284e+01  -7.0720004e+01  -1.2973955e+02  -1.3734875e+02  -8.9380026e+01  -2.6883151e+00   9.3378670e+01   1.6852972e+02   2.0266672e+02   1.8766701e+02   1.3530632e+02   6.4058132e+01  -2.8464988e+00  -4.5190285e+01  -5.0551819e+01  -1.5272397e+01   5.0316001e+01   1.2980445e+02   1.9851311e+02   2.3268898e+02   2.1914466e+02   1.5788397e+02   6.8545589e+01  -1.9843868e+01  -7.6811396e+01  -8.3212858e+01  -3.5032607e+01   5.2649604e+01   1.5183444e+02   2.3158471e+02   2.6825816e+02   2.5303725e+02   1.9434902e+02   1.1308633e+02   3.5207783e+01  -1.2227064e+01  -1.5711549e+01   2.6137445e+01   1.0087156e+02   1.8458320e+02   2.4894545e+02   2.7333171e+02   2.4908362e+02   1.8359412e+02   9.8219207e+01   1.9694938e+01  -2.7819201e+01  -3.2187126e+01   7.4862032e+00   7.8546464e+01   1.5949345e+02   2.2518627e+02   2.5491342e+02   2.3841051e+02   1.7956563e+02   9.5935480e+01   1.5862174e+01  -3.0606113e+01  -2.4079279e+01   3.4210473e+01   1.2644171e+02   2.1822958e+02   2.7904031e+02   2.8830193e+02   2.4529562e+02   1.6462102e+02   7.0446853e+01  -7.5723141e+00  -5.0445232e+01  -4.7130182e+01   1.6914592e+00   8.1877246e+01   1.7102984e+02   2.4197207e+02   2.7477061e+02   2.5741522e+02   1.9501725e+02   1.0483001e+02   1.8057173e+01  -3.7235015e+01  -4.0178716e+01   9.4502308e+00   9.6828719e+01   1.9052785e+02   2.5704629e+02   2.7568827e+02   2.3992846e+02   1.6421428e+02   7.7622800e+01   8.4437224e+00  -1.6929047e+01   8.1304607e+00   7.8378221e+01   1.7469210e+02   2.7084752e+02   3.3922944e+02   3.6068901e+02   3.2870344e+02   2.5486010e+02   1.6118347e+02   8.1476617e+01   4.3126315e+01   6.0315046e+01   1.3013259e+02   2.2783124e+02   3.2282183e+02   3.8348918e+02   3.8900431e+02   3.4131392e+02   2.5639351e+02   1.6537072e+02   9.6768181e+01   7.3358054e+01   1.0056178e+02   1.6582893e+02   2.4715016e+02   3.1620910e+02   3.5119092e+02   3.3741318e+02   2.7600567e+02   1.8181555e+02   7.7250379e+01  -8.6008418e+00  -5.6032627e+01  -5.8056418e+01  -2.1641469e+01   3.2182123e+01   7.9752450e+01   9.8672986e+01   7.7319546e+01   1.6220982e+01  -7.3420309e+01  -1.7324270e+02  -2.6083272e+02  -3.1782852e+02  -3.3110071e+02  -2.9870519e+02  -2.3365721e+02  -1.6223463e+02  -1.1095199e+02  -1.0309408e+02  -1.4551884e+02  -2.2439238e+02  -3.1293946e+02  -3.7868603e+02  -3.9655361e+02  -3.5889390e+02  -2.7621487e+02  -1.7273177e+02  -8.0535773e+01  -2.4576455e+01  -1.8352563e+01  -5.7974183e+01  -1.2717505e+02  -1.9926249e+02  -2.4740824e+02  -2.5261167e+02  -2.0845377e+02  -1.2547230e+02  -2.7397173e+01   5.2862303e+01   9.1221295e+01   7.5516819e+01   1.1092698e+01  -7.9605636e+01  -1.6530040e+02  -2.1932486e+02  -2.2652930e+02  -1.8778708e+02  -1.1700654e+02  -3.6996010e+01   2.7819238e+01   5.6496404e+01   3.9574720e+01  -2.3591422e+01  -1.1755780e+02  -2.1634665e+02  -2.9005696e+02  -3.1477363e+02  -2.8192356e+02  -2.0304500e+02  -1.0440562e+02  -1.9554944e+01   2.4801796e+01   1.6685692e+01  -3.7039736e+01  -1.1763093e+02  -1.9718881e+02  -2.5430323e+02  -2.7184104e+02  -2.4505921e+02  -1.8108582e+02  -9.8300796e+01  -2.0786015e+01   2.4724311e+01   2.1483037e+01  -3.1496344e+01  -1.1874286e+02  -2.0828707e+02  -2.7035821e+02  -2.8202122e+02  -2.4197462e+02  -1.6564163e+02  -8.1199998e+01  -1.7821691e+01   3.3862197e+00  -2.3170395e+01  -9.0131415e+01  -1.7085849e+02  -2.3469781e+02  -2.5082569e+02  -2.0084326e+02  -8.3364117e+01   8.6198637e+01   2.7490152e+02   4.4723191e+02   5.7621309e+02   6.4473877e+02   6.5878993e+02   6.3150606e+02   5.8573190e+02   5.4610895e+02   5.3056618e+02   5.4993416e+02   6.0140268e+02   6.6898845e+02   7.2957302e+02   7.5792772e+02   7.3982967e+02   6.7998794e+02   5.9684680e+02   5.1697858e+02   4.6419427e+02   4.5023132e+02   4.6569088e+02   4.8985086e+02   4.9341350e+02   4.5065959e+02   3.4438678e+02   1.7675629e+02  -3.3155788e+01  -2.4592691e+02  -4.1765562e+02  -5.0992503e+02  -5.0298422e+02  -4.0651811e+02  -2.5346915e+02  -9.0961821e+01   3.7047856e+01   1.0172309e+02   9.6028502e+01   3.6000219e+01  -4.8126419e+01  -1.2201397e+02  -1.5927342e+02  -1.4357068e+02  -7.9194732e+01   1.2373392e+01   1.0374921e+02   1.6409347e+02   1.7401289e+02   1.3206183e+02   5.4765886e+01  -2.8474406e+01  -9.2599448e+01  -1.1790536e+02  -9.8963448e+01  -4.2904207e+01   3.2304263e+01   1.0834547e+02   1.6504203e+02   1.8711097e+02   1.6537154e+02   1.0341051e+02   1.7170329e+01  -6.6442067e+01  -1.1854917e+02  -1.2000684e+02  -6.6339214e+01   2.3363704e+01   1.1723685e+02   1.8426268e+02   2.0095806e+02   1.6433531e+02   8.9219406e+01   1.4930998e+00  -6.9531470e+01  -1.0517229e+02  -9.5964892e+01  -4.6345229e+01   2.9754457e+01   1.0894888e+02   1.6914800e+02   1.9120922e+02   1.6672394e+02   1.0208743e+02   1.6513002e+01  -6.2728880e+01  -1.0935744e+02  -1.0551525e+02  -5.2209695e+01   3.1335038e+01   1.1487946e+02   1.6792805e+02   1.7023243e+02   1.2030971e+02   3.4208177e+01  -6.0720021e+01  -1.3367550e+02  -1.6136948e+02  -1.3720208e+02  -7.1353452e+01   1.4205605e+01   9.2143630e+01   1.3857201e+02   1.3939134e+02   9.4496051e+01   1.8161006e+01  -6.6518816e+01  -1.3567520e+02  -1.6661852e+02  -1.4982057e+02  -9.0683836e+01  -8.2034840e+00   7.0733425e+01   1.1726692e+02   1.1384414e+02   6.1206208e+01  -2.3517383e+01  -1.1363881e+02  -1.8012007e+02  -2.0253102e+02  -1.7588901e+02  -1.1019149e+02  -2.8834126e+01   4.4254516e+01   8.7558121e+01   9.1130190e+01   5.5351157e+01  -8.2346262e+00  -8.0942756e+01  -1.4121515e+02  -1.7347219e+02  -1.6670834e+02  -1.2171669e+02  -5.1232447e+01   2.3081755e+01   7.8550963e+01   9.3436082e+01   6.1360019e+01  -1.0211418e+01  -9.8266954e+01  -1.7262323e+02  -2.0768257e+02  -1.8775890e+02  -1.2093628e+02  -2.7857869e+01   5.7527346e+01   1.0493493e+02   9.8553089e+01   3.8180504e+01  -5.5637848e+01  -1.5120508e+02  -2.1720716e+02  -2.3245439e+02  -1.9402835e+02  -1.1786366e+02  -2.9256680e+01   4.0580874e+01   7.2538896e+01   5.7308209e+01   1.2983101e+00  -7.7478397e+01  -1.5419384e+02  -2.0580448e+02  -2.1670605e+02  -1.8266935e+02  -1.1615838e+02  -3.8614269e+01   2.6095887e+01   5.6637100e+01   4.2694461e+01  -9.4118098e+00  -8.1141404e+01  -1.4971985e+02  -1.9076803e+02  -1.8880002e+02  -1.4185671e+02  -6.3464158e+01   2.4392135e+01   9.1983563e+01   1.1576602e+02   8.7648788e+01   1.4266621e+01  -7.9800191e+01  -1.6429102e+02  -2.1200736e+02  -2.1122798e+02  -1.6309474e+02  -8.4238055e+01   5.6344317e-01   6.4301344e+01   8.8698201e+01   6.2339338e+01  -9.3096621e+00  -1.0696753e+02  -2.0102265e+02  -2.6036155e+02  -2.6471278e+02  -2.1083435e+02  -1.1688613e+02  -1.4872091e+01   6.2382292e+01   9.3143190e+01   7.0714319e+01   6.1917361e+00  -7.8850438e+01  -1.5899415e+02  -2.1079702e+02  -2.1796377e+02  -1.7724608e+02  -9.9500355e+01  -5.8886700e+00   7.3231400e+01   1.1011963e+02   9.1334973e+01   2.1138038e+01  -7.5158752e+01  -1.6704295e+02  -2.2165435e+02  -2.2079344e+02  -1.6651082e+02  -7.5799834e+01   2.0513443e+01   9.1046453e+01   1.1264836e+02   7.9879924e+01   5.1034730e+00  -8.6491192e+01  -1.6397523e+02  -2.0261394e+02  -1.9278267e+02  -1.3932879e+02  -6.0981937e+01   1.5998356e+01   6.8222650e+01   7.8927594e+01   4.3283850e+01  -2.7762534e+01  -1.1470121e+02  -1.9168692e+02  -2.3846641e+02  -2.4013916e+02  -1.9526583e+02  -1.1701103e+02  -2.6601853e+01   4.7113778e+01   8.0295764e+01   6.0156483e+01  -8.5179202e+00  -1.0485496e+02  -1.9526808e+02  -2.4734265e+02  -2.4137828e+02  -1.7916292e+02  -8.6764425e+01   4.2733455e+00   6.1465861e+01   6.7912978e+01   2.5073465e+01  -5.0068704e+01  -1.3382516e+02  -2.0238857e+02  -2.3575103e+02  -2.2509417e+02  -1.7527854e+02  -9.8309693e+01  -1.9269670e+01   3.7343971e+01   5.0096500e+01   1.4195500e+01  -5.7616538e+01  -1.4314203e+02  -2.1147231e+02  -2.4091441e+02  -2.2424042e+02  -1.6793869e+02  -9.0429169e+01  -1.6819428e+01   3.1792456e+01   4.0677471e+01   3.8177876e+00  -6.9478246e+01  -1.5988007e+02  -2.4087072e+02  -2.8759529e+02  -2.8387944e+02  -2.3316526e+02  -1.5442376e+02  -7.6717756e+01  -2.5485651e+01  -2.0348858e+01  -6.1075994e+01  -1.3432402e+02  -2.1724052e+02  -2.8345012e+02  -3.1486018e+02  -2.9945628e+02  -2.4290302e+02  -1.6111050e+02  -8.1544059e+01  -2.9420763e+01  -2.5616521e+01  -7.2880604e+01  -1.5689521e+02  -2.5116392e+02  -3.2616457e+02  -3.5715472e+02  -3.3580845e+02  -2.6855792e+02  -1.8089045e+02  -9.9467765e+01  -5.3273872e+01  -5.5627844e+01  -1.0561980e+02  -1.8542917e+02  -2.6841866e+02  -3.2636591e+02  -3.4019065e+02  -3.0537801e+02  -2.3404053e+02  -1.4796196e+02  -7.4577435e+01  -3.7147445e+01  -4.6961737e+01  -1.0007656e+02  -1.8195257e+02  -2.6478576e+02  -3.2381691e+02  -3.3994780e+02  -3.0889455e+02  -2.4389977e+02  -1.6645140e+02  -1.0406108e+02  -7.6420123e+01  -9.0774187e+01  -1.4196713e+02  -2.1542760e+02  -2.8878576e+02  -3.4232102e+02  -3.6053199e+02  -3.3907950e+02  -2.8219443e+02  -2.0309682e+02  -1.2657157e+02  -7.7078999e+01  -7.3248757e+01  -1.1916176e+02  -2.0161100e+02  -2.9093559e+02  -3.5555728e+02  -3.7048276e+02  -3.3204817e+02  -2.5406698e+02  -1.6801826e+02  -1.0550185e+02  -8.7383783e+01  -1.1647293e+02  -1.8307653e+02  -2.6553537e+02  -3.3924110e+02  -3.8719940e+02  -3.9738691e+02  -3.6621783e+02  -3.0336568e+02  -2.2567793e+02  -1.5749830e+02  -1.2286446e+02  -1.3541055e+02  -1.9425623e+02  -2.7988319e+02  -3.6439863e+02  -4.2117513e+02  -4.3109268e+02  -3.9073498e+02  -3.1386907e+02  -2.2205034e+02  -1.4376014e+02  -1.0059618e+02  -1.0534145e+02  -1.5613571e+02  -2.3365842e+02  -3.1262573e+02  -3.6251984e+02  -3.6575399e+02  -3.1965663e+02  -2.3767859e+02  -1.4675844e+02  -7.5333068e+01  -4.5555431e+01  -6.5533907e+01  -1.2875815e+02  -2.1753261e+02  -3.0463247e+02  -3.6404367e+02  -3.7798151e+02  -3.3961619e+02  -2.5899239e+02  -1.6217314e+02  -7.9171262e+01  -4.2262315e+01  -6.4469162e+01  -1.3931091e+02  -2.4253740e+02  -3.3696927e+02  -3.9124513e+02  -3.8866429e+02  -3.3460448e+02  -2.5309360e+02  -1.7567110e+02  -1.3018759e+02  -1.3317507e+02  -1.8455952e+02  -2.7273629e+02  -3.7162941e+02  -4.5575656e+02  -5.0103530e+02  -4.9450670e+02  -4.4149885e+02  -3.6389317e+02  -2.9072746e+02  -2.4986440e+02  -2.5739530e+02  -3.0953366e+02  -3.8795482e+02  -4.6911195e+02  -5.2946342e+02  -5.5529371e+02  -5.4129940e+02  -4.9151077e+02  -4.1729459e+02  -3.3776298e+02  -2.7738558e+02  -2.5649812e+02  -2.8743198e+02  -3.6314591e+02  -4.5979522e+02  -5.4208846e+02  -5.8206632e+02  -5.6348201e+02  -4.9341297e+02  -3.9694469e+02  -3.0635057e+02  -2.4763882e+02  -2.3518264e+02  -2.7112345e+02  -3.4034639e+02  -4.2235939e+02  -4.9083182e+02  -5.2337338e+02  -5.0573476e+02  -4.3911672e+02  -3.4252288e+02  -2.4668139e+02  -1.8148322e+02  -1.7068218e+02  -2.1251838e+02  -2.8999100e+02  -3.7601412e+02  -4.4112466e+02  -4.6827222e+02  -4.4887364e+02  -3.9087251e+02  -3.0682438e+02  -2.1862399e+02  -1.5188704e+02  -1.2775028e+02  -1.5771776e+02  -2.3520297e+02  -3.3290910e+02  -4.1363854e+02  -4.4702306e+02  -4.1837271e+02  -3.3944732e+02  -2.3926407e+02  -1.5364926e+02  -1.0860754e+02  -1.1428221e+02  -1.6108890e+02  -2.2858514e+02  -2.9311673e+02  -3.3474749e+02  -3.4092466e+02  -3.1009571e+02  -2.5014961e+02  -1.7789704e+02  -1.1539612e+02  -8.1265412e+01  -8.7772593e+01  -1.3423917e+02  -2.0323853e+02  -2.6952668e+02  -3.0312616e+02  -2.8097170e+02  -1.9534493e+02  -5.5034261e+01   1.1647369e+02   2.8887135e+02   4.3277179e+02   5.2751314e+02   5.6852473e+02   5.6485723e+02   5.3402965e+02   5.0384762e+02   4.9481714e+02   5.2290685e+02   5.8565633e+02   6.6523368e+02   7.3545701e+02   7.6952388e+02   7.5664653e+02   7.0014282e+02   6.2167309e+02   5.4887089e+02   5.0209498e+02   4.9095325e+02   5.0932102e+02   5.3977525e+02   5.5694637e+02   5.3371106e+02   4.5191489e+02   3.0482269e+02   1.0490264e+02  -1.1527288e+02  -3.1365912e+02  -4.4709660e+02  -4.9171298e+02  -4.4567125e+02  -3.3341803e+02  -1.9502887e+02  -6.8820535e+01   1.4401299e+01   4.1652766e+01   1.6296040e+01  -4.5353232e+01  -1.1588940e+02  -1.6727167e+02  -1.7616003e+02  -1.3446075e+02  -5.3305200e+01   4.0849517e+01   1.1374547e+02   1.3805978e+02   1.0554999e+02   2.7318926e+01  -7.0844548e+01  -1.5951256e+02  -2.1610936e+02  -2.3211992e+02  -2.1038161e+02  -1.6376269e+02  -1.0501256e+02  -5.5119473e+01  -2.9631346e+01  -4.3728391e+01  -1.0127194e+02  -1.9077734e+02  -2.8967695e+02  -3.6586123e+02  -3.9375462e+02  -3.6133149e+02  -2.8346020e+02  -1.8846224e+02  -1.1331092e+02  -8.3972230e+01  -1.1166764e+02  -1.8222177e+02  -2.7034858e+02  -3.4714419e+02  -3.8470560e+02  -3.7311194e+02  -3.1420843e+02  -2.2365912e+02  -1.2825129e+02  -5.3956665e+01  -1.9295095e+01  -3.1768703e+01  -8.2470207e+01  -1.4963015e+02  -2.0428356e+02  -2.2291635e+02  -1.9231755e+02  -1.1812043e+02  -1.8578338e+01   7.8348733e+01   1.4801693e+02   1.7165368e+02   1.4669920e+02   8.5900066e+01   1.1485275e+01  -5.2665772e+01  -8.6667435e+01  -8.2307189e+01  -4.2293495e+01   2.2291861e+01   9.2160883e+01   1.4794653e+02   1.7267957e+02   1.5589235e+02   9.9388428e+01   2.2107938e+01  -5.0907043e+01  -9.1190065e+01  -8.2386477e+01  -2.6228705e+01   5.6326406e+01   1.3552342e+02   1.8105825e+02   1.7950737e+02   1.3623282e+02   6.7869866e+01  -1.0798515e+00  -5.1457016e+01  -6.8143547e+01  -4.8463147e+01   4.0885424e+00   7.5977822e+01   1.5126498e+02   2.0892566e+02   2.3019186e+02   2.0723756e+02   1.4538726e+02   6.5463262e+01  -3.5528417e+00  -3.6186885e+01  -1.9684487e+01   4.1545427e+01   1.2635912e+02   2.0871791e+02   2.6306167e+02   2.7652641e+02   2.4736593e+02   1.8783676e+02   1.1526191e+02   5.4537826e+01   2.5490277e+01   3.9855640e+01   9.4142032e+01   1.7337961e+02   2.5420005e+02   3.1029513e+02   3.2454059e+02   2.9417781e+02   2.3238951e+02   1.5908320e+02   1.0023373e+02   7.6239786e+01   9.5066175e+01   1.5437096e+02   2.3953815e+02   3.2496391e+02   3.8358019e+02   3.9588258e+02   3.5588910e+02   2.7544152e+02   1.8375532e+02   1.1364765e+02   9.2938063e+01   1.2778014e+02   2.0506204e+02   2.9770673e+02   3.7513036e+02   4.1278372e+02   4.0503373e+02   3.5785526e+02   2.8782893e+02   2.1644738e+02   1.6423920e+02   1.4424075e+02   1.6355513e+02   2.1706673e+02   2.8904557e+02   3.5780521e+02   3.9927645e+02   3.9774391e+02   3.5226064e+02   2.7632223e+02   1.9590347e+02   1.3944900e+02   1.2838763e+02   1.6689333e+02   2.4289559e+02   3.3297852e+02   4.0924012e+02   4.4691227e+02   4.3597752e+02   3.7833990e+02   2.9421318e+02   2.0892279e+02   1.5178938e+02   1.3969675e+02   1.7704788e+02   2.5104548e+02   3.3684645e+02   4.0557565e+02   4.3594757e+02   4.1772925e+02   3.5565166e+02   2.7151678e+02   1.9179003e+02   1.4441637e+02   1.4448820e+02   1.9044004e+02   2.6563258e+02   3.4277862e+02   3.9910976e+02   4.1698073e+02   3.9214826e+02   3.3738679e+02   2.6727950e+02   2.0357316e+02   1.6090862e+02   1.5058242e+02   1.7398456e+02   2.2749930e+02   2.9822296e+02   3.6730714e+02   4.1257164e+02   4.1962368e+02   3.8219841e+02   3.0964866e+02   2.2606680e+02   1.5992389e+02   1.3590702e+02   1.6457254e+02   2.3652927e+02   3.2741304e+02   4.0337710e+02   4.3669547e+02   4.1272059e+02   3.4196497e+02   2.4632034e+02   1.5798846e+02   1.0507242e+02   1.0152682e+02   1.4704942e+02   2.2455087e+02   3.0837018e+02   3.7088049e+02   3.9204168e+02   3.6315446e+02   2.9464804e+02   2.0700790e+02   1.3151061e+02   9.3778355e+01   1.0486573e+02   1.6142017e+02   2.4246982e+02   3.2190763e+02   3.7223198e+02   3.7905904e+02   3.4267379e+02   2.7351601e+02   1.9080228e+02   1.1504581e+02   6.6552736e+01   5.3623058e+01   7.9958891e+01   1.3375350e+02   1.9743354e+02   2.4953378e+02   2.6817878e+02   2.4445196e+02   1.8360933e+02   1.0342918e+02   2.7548393e+01  -1.9076307e+01  -2.4843923e+01   1.0139907e+01   7.3429923e+01   1.4120631e+02   1.9024267e+02   2.0331934e+02   1.7438260e+02   1.0747496e+02   2.0819599e+01  -6.0003039e+01  -1.1259438e+02  -1.2025064e+02  -8.3038309e+01  -1.5124632e+01   5.6420425e+01   1.0568091e+02   1.1122251e+02   7.2017247e+01   6.2351112e-02  -7.8826355e+01  -1.4201774e+02  -1.7061686e+02  -1.6181989e+02  -1.2071069e+02  -6.4279981e+01  -8.9803603e+00   2.6435914e+01   3.1178331e+01   1.1276988e+00  -5.8838003e+01  -1.3032729e+02  -1.9361150e+02  -2.2519183e+02  -2.1500981e+02  -1.6398883e+02  -8.9771866e+01  -1.8061155e+01   2.6623566e+01   2.8124352e+01  -1.4861108e+01  -8.6731906e+01  -1.6471638e+02  -2.2518500e+02  -2.5119571e+02  -2.3852971e+02  -1.9496075e+02  -1.3871101e+02  -8.7591240e+01  -5.5708058e+01  -5.3401424e+01  -8.2000120e+01  -1.3807840e+02  -2.0845107e+02  -2.7562349e+02  -3.1730385e+02  -3.1724464e+02  -2.7021621e+02  -1.9215809e+02  -1.0910045e+02  -5.2807538e+01  -4.2824808e+01  -8.2483221e+01  -1.5746458e+02  -2.4106823e+02  -3.0881098e+02  -3.4292166e+02  -3.3500541e+02  -2.8873936e+02  -2.1673456e+02  -1.3925010e+02  -8.2775433e+01  -6.7180864e+01  -1.0595354e+02  -1.9004605e+02  -2.9338528e+02  -3.8159408e+02  -4.2544820e+02  -4.1035582e+02  -3.4578255e+02  -2.5784546e+02  -1.7785061e+02  -1.3184922e+02  -1.3392250e+02  -1.8067031e+02  -2.5735005e+02  -3.4061878e+02  -4.0135480e+02  -4.2104710e+02  -3.8905898e+02  -3.1575611e+02  -2.2381637e+02  -1.4258628e+02  -9.9617464e+01  -1.0810074e+02  -1.6162683e+02  -2.4163518e+02  -3.2040648e+02  -3.7299718e+02  -3.8356873e+02  -3.4943837e+02  -2.8090888e+02  -1.9728964e+02  -1.2006401e+02  -6.9395295e+01  -5.8696163e+01  -8.8645502e+01  -1.4993078e+02  -2.1947745e+02  -2.7348825e+02  -2.8971320e+02  -2.5829803e+02  -1.8433586e+02  -8.9625364e+01  -3.6766232e+00   4.7790949e+01   4.8130831e+01  -5.0331569e-01  -7.9179576e+01  -1.5762895e+02  -2.0935821e+02  -2.1683000e+02  -1.7608558e+02  -1.0000684e+02  -9.8143467e+00   6.7072697e+01   1.0952170e+02   1.0479281e+02   5.5985248e+01  -2.1281820e+01  -9.9529482e+01  -1.5360282e+02  -1.6375035e+02  -1.3000566e+02  -6.4143107e+01   1.1098966e+01   6.9315600e+01   9.5911190e+01   8.1033191e+01   3.0738657e+01  -4.2623548e+01  -1.1729574e+02  -1.7437268e+02  -1.9379019e+02  -1.7047875e+02  -1.1002821e+02  -3.6650998e+01   2.2261483e+01   4.0600730e+01   7.3074251e+00  -6.9728025e+01  -1.6656004e+02  -2.5126852e+02  -2.9927383e+02  -2.9521806e+02  -2.4488494e+02  -1.6458080e+02  -8.0856597e+01  -2.0945379e+01  -2.3428053e+00  -3.1233114e+01  -9.8869038e+01  -1.8374546e+02  -2.5886719e+02  -3.0209811e+02  -3.0091089e+02  -2.5704994e+02  -1.8461128e+02  -1.0651448e+02  -4.8820860e+01  -2.9364147e+01  -5.3380492e+01  -1.1418264e+02  -1.9162477e+02  -2.6256711e+02  -3.0426543e+02  -3.0499315e+02  -2.6744934e+02  -2.0553832e+02  -1.3959091e+02  -9.1560799e+01  -7.8699582e+01  -1.0338133e+02  -1.5705806e+02  -2.2300146e+02  -2.8095103e+02  -3.1253559e+02  -3.0676644e+02  -2.6519895e+02  -1.9742821e+02  -1.2308217e+02  -6.4919329e+01  -4.3567055e+01  -6.6550804e+01  -1.2852918e+02  -2.1029929e+02  -2.8160641e+02  -3.1657179e+02  -3.0103323e+02  -2.4044352e+02  -1.5607655e+02  -7.4797368e+01  -2.4076297e+01  -1.9810755e+01  -6.0580010e+01  -1.3617688e+02  -2.2588635e+02  -3.0345872e+02  -3.4853819e+02  -3.4784136e+02  -3.0078136e+02  -2.2137468e+02  -1.3678113e+02  -7.7229612e+01  -6.5920754e+01  -1.0950527e+02  -1.9590990e+02  -2.9988787e+02  -3.8815454e+02  -4.3681888e+02  -4.3540531e+02  -3.8721343e+02  -3.0793801e+02  -2.1699248e+02  -1.3335765e+02  -7.0570748e+01  -3.0424569e+01  -7.0767448e+00   1.2146491e+01   4.7473603e+01   1.1227317e+02   2.1320186e+02   3.4211225e+02   4.7871177e+02   5.9543857e+02   6.6766778e+02   6.8261383e+02   6.4239315e+02   5.6362336e+02   4.7236795e+02   3.9572913e+02   3.5446708e+02   3.6133583e+02   4.1427425e+02   4.9935341e+02   5.8785436e+02   6.4852542e+02   6.5036811e+02   5.7845290e+02   4.4021920e+02   2.5916316e+02   7.1297756e+01  -8.9195418e+01  -2.0044338e+02  -2.6040944e+02  -2.7866031e+02  -2.7608947e+02  -2.7161059e+02  -2.7748652e+02  -2.9875487e+02  -3.2921729e+02  -3.5599551e+02  -3.6119167e+02  -3.3519507e+02  -2.7297017e+02  -1.8430918e+02  -8.7327437e+01  -8.0064908e+00   3.6142829e+01   3.2621546e+01  -1.3730814e+01  -8.6011844e+01  -1.6004400e+02  -2.1313697e+02  -2.2733278e+02  -1.9848792e+02  -1.3624084e+02  -5.9234729e+01   7.5120461e+00   4.5959461e+01   4.1441509e+01  -3.2689399e+00  -7.6530800e+01  -1.5685671e+02  -2.1877414e+02  -2.4300235e+02  -2.1932057e+02  -1.5324445e+02  -6.5972824e+01   1.4415171e+01   6.3329081e+01   6.3916601e+01   1.8867310e+01  -5.5449941e+01  -1.3023861e+02  -1.8122998e+02  -1.9178941e+02  -1.5757269e+02  -8.7917981e+01  -2.5273119e+00   7.1496886e+01   1.1102566e+02   1.0400086e+02   5.2979133e+01  -2.5013511e+01  -1.0194805e+02  -1.4782485e+02  -1.4769429e+02  -1.0009196e+02  -2.2145473e+01   5.9001470e+01   1.1829877e+02   1.3815109e+02   1.1534717e+02   5.9333819e+01  -1.4215189e+01  -8.2074834e+01  -1.2356714e+02  -1.2648238e+02  -8.6280925e+01  -1.3907036e+01   7.0046356e+01   1.4259022e+02   1.7868125e+02   1.6797599e+02   1.1382943e+02   3.4576374e+01  -4.1352666e+01  -8.8592408e+01  -9.0661428e+01  -4.5929670e+01   2.9858933e+01   1.1367614e+02   1.7959839e+02   2.0812413e+02   1.9075041e+02   1.3269914e+02   5.0918588e+01  -2.9997687e+01  -8.4022812e+01  -9.0404252e+01  -4.3394368e+01   4.3513419e+01   1.4291770e+02   2.2001998e+02   2.4890287e+02   2.2391911e+02   1.5914174e+02   8.0090093e+01   1.7462646e+01  -1.0111575e+01   1.3445182e+00   4.5672898e+01   1.1263434e+02   1.8548117e+02   2.4958087e+02   2.8764295e+02   2.8590940e+02   2.4032205e+02   1.6197202e+02   7.8650494e+01   2.2570665e+01   2.0918146e+01   7.6619896e+01   1.7368962e+02   2.7603790e+02   3.4720317e+02   3.6452227e+02   3.2511853e+02   2.4778636e+02   1.6016776e+02   9.1127987e+01   6.3455859e+01   8.2552402e+01   1.4345372e+02   2.2746344e+02   3.1119125e+02   3.7037999e+02   3.8900958e+02   3.6407709e+02   3.0419915e+02   2.3152309e+02   1.6993888e+02   1.4077077e+02   1.5361477e+02   2.0662032e+02   2.8540817e+02   3.6832941e+02   4.2837695e+02   4.4921057e+02   4.2271983e+02   3.5734073e+02   2.7470394e+02   2.0369131e+02   1.6912920e+02   1.8378479e+02   2.4091227e+02   3.2245718e+02   3.9953115e+02   4.4839995e+02   4.5342078e+02   4.1538194e+02   3.4653165e+02   2.6796668e+02   1.9954011e+02   1.6156500e+02   1.6197582e+02   2.0014233e+02   2.6235742e+02   3.2652090e+02   3.6719480e+02   3.6744491e+02   3.2095232e+02   2.3875539e+02   1.4338439e+02   6.4630336e+01   2.2268428e+01   2.8392708e+01   7.6499806e+01   1.4925746e+02   2.2338928e+02   2.7278668e+02   2.7924477e+02   2.3833998e+02   1.5888442e+02   6.5812520e+01  -1.2180221e+01  -4.6882785e+01  -2.6053278e+01   4.1938359e+01   1.3315686e+02   2.1617969e+02   2.6425586e+02   2.6692684e+02   2.2966432e+02   1.7003723e+02   1.1235515e+02   7.6186931e+01   7.5155698e+01   1.1264339e+02   1.8542434e+02   2.7698669e+02   3.6679590e+02   4.2948965e+02   4.4837436e+02   4.1781750e+02   3.5312718e+02   2.7895798e+02   2.2371838e+02   2.1041670e+02   2.4356201e+02   3.1007738e+02   3.8789407e+02   4.5139362e+02   4.7762985e+02   4.5869232e+02   3.9984811e+02   3.1713354e+02   2.3352742e+02   1.7425529e+02   1.5369452e+02   1.7947806e+02   2.4168822e+02   3.1971987e+02   3.8889345e+02   4.2669531e+02   4.1800097e+02   3.6296390e+02   2.7432231e+02   1.7834736e+02   1.0305425e+02   7.2176103e+01   9.6475840e+01   1.6522070e+02   2.5330838e+02   3.2904035e+02   3.6536867e+02   3.4996944e+02   2.8787360e+02   1.9949075e+02   1.1234005e+02   5.3180219e+01   4.0064259e+01   7.2868708e+01   1.3805263e+02   2.1204350e+02   2.6716276e+02   2.8286780e+02   2.5266528e+02   1.8547725e+02   1.0138050e+02   2.5124268e+01  -2.1813658e+01  -2.7082791e+01   4.2931174e+00   6.3961952e+01   1.3188701e+02   1.9041947e+02   2.2252920e+02   2.1755285e+02   1.7329397e+02   9.8480715e+01   1.6076784e+01  -4.8728843e+01  -7.2282476e+01  -4.6486869e+01   2.1527989e+01   1.0329867e+02   1.6723699e+02   1.8983974e+02   1.6326518e+02   9.9166710e+01   2.4875223e+01  -3.5485768e+01  -6.3062633e+01  -5.3924715e+01  -1.3852116e+01   4.3277129e+01   1.0162381e+02   1.4571964e+02   1.6264110e+02   1.4640195e+02   9.6513216e+01   2.4890152e+01  -4.8221490e+01  -9.5349666e+01  -9.9329832e+01  -5.4850136e+01   2.7449958e+01   1.1835873e+02   1.8754326e+02   2.1168051e+02   1.8165908e+02   1.1086155e+02   2.5795048e+01  -4.5168920e+01  -7.6936243e+01  -6.1100883e+01  -6.2463888e+00   7.1241769e+01   1.4679209e+02   2.0021002e+02   2.1776075e+02   1.9517860e+02   1.3867516e+02   6.3302626e+01  -8.4809861e+00  -5.2979582e+01  -5.2538778e+01  -6.6024389e+00   7.2755027e+01   1.5866913e+02   2.2214466e+02   2.4407552e+02   2.1705151e+02   1.5408978e+02   7.6735972e+01   8.4669529e+00  -2.9486984e+01  -2.7275917e+01   1.6769458e+01   9.0889429e+01   1.7395700e+02   2.4222424e+02   2.7226648e+02   2.5557512e+02   1.9600371e+02   1.1560427e+02   4.2869245e+01   2.5487198e+00   7.6689530e+00   5.6992925e+01   1.3205849e+02   2.0746069e+02   2.5868308e+02   2.6896459e+02   2.3467784e+02   1.6849318e+02   9.0955298e+01   2.6571191e+01  -4.3723816e+00   6.3632776e+00   5.5686296e+01   1.2648930e+02   1.9813963e+02   2.4838223e+02   2.6311949e+02   2.3757205e+02   1.7716546e+02   1.0085966e+02   3.2099770e+01  -5.3487221e+00   1.9394084e+00   5.8029628e+01   1.4521683e+02   2.3571234e+02   2.9760223e+02   3.0752252e+02   2.5958821e+02   1.6999471e+02   7.0099651e+01  -6.7565024e+00  -3.4386080e+01  -8.2347950e+00   5.6872688e+01   1.3560296e+02   1.9999917e+02   2.3249218e+02   2.2546620e+02   1.8095093e+02   1.1393448e+02   4.1196582e+01  -1.4000370e+01  -3.5017308e+01  -1.2140071e+01   5.3945013e+01   1.4329567e+02   2.3079033e+02   2.8618634e+02   2.9257495e+02   2.4684078e+02   1.6569620e+02   7.7280057e+01   1.1733680e+01  -1.0863299e+01   1.4389675e+01   7.9005774e+01   1.5751848e+02   2.2373188e+02   2.5880663e+02   2.5058661e+02   2.0281594e+02   1.3189383e+02   5.7247456e+01   1.8093348e+00  -1.6986245e+01   5.8813900e+00   6.4090013e+01   1.3764965e+02   2.0032255e+02   2.2972693e+02   2.1052274e+02   1.4537345e+02   5.1412266e+01  -4.3615597e+01  -1.1197504e+02  -1.3688126e+02  -1.1820950e+02  -6.9141814e+01  -1.4222609e+01   2.6232470e+01   3.5258801e+01   8.2903812e+00  -4.8128853e+01  -1.2116047e+02  -1.9175171e+02  -2.4135051e+02  -2.5677983e+02  -2.3474525e+02  -1.8120941e+02  -1.1519331e+02  -5.9031278e+01  -3.3244624e+01  -4.8640915e+01  -1.0385247e+02  -1.8242338e+02  -2.5909493e+02  -3.1259211e+02  -3.2741209e+02  -3.0011560e+02  -2.4042414e+02  -1.6977238e+02  -1.1142349e+02  -8.4358048e+01  -1.0154022e+02  -1.5672175e+02  -2.3380938e+02  -3.0735543e+02  -3.5340856e+02  -3.5820450e+02  -3.2022783e+02  -2.5502044e+02  -1.8347717e+02  -1.2981796e+02  -1.0949219e+02  -1.2761357e+02  -1.7703262e+02  -2.4398637e+02  -3.0879591e+02  -3.5378366e+02  -3.6486987e+02  -3.4041113e+02  -2.8672835e+02  -2.2215535e+02  -1.6787562e+02  -1.4384603e+02  -1.6039787e+02  -2.1256799e+02  -2.8401519e+02  -3.5190614e+02  -3.9388164e+02  -3.9654717e+02  -3.5808503e+02  -2.9150944e+02  -2.1548416e+02  -1.5504644e+02  -1.2757252e+02  -1.4056335e+02  -1.9124372e+02  -2.6174397e+02  -3.3016254e+02  -3.7056248e+02  -3.6733478e+02  -3.1856517e+02  -2.3600354e+02  -1.4564644e+02  -7.7351664e+01  -5.3855731e+01  -8.2757078e+01  -1.5439607e+02  -2.4531240e+02  -3.2649085e+02  -3.7339089e+02  -3.7318283e+02  -3.2686827e+02  -2.4596198e+02  -1.4783751e+02  -5.4229826e+01   1.9699903e+01   6.6190713e+01   8.9730702e+01   1.0333515e+02   1.2912751e+02   1.8628251e+02   2.8591641e+02   4.2020441e+02   5.6697026e+02   6.9355772e+02   7.7342003e+02   7.9099198e+02   7.4931944e+02   6.6764094e+02   5.7341582e+02   4.9175376e+02   4.4435572e+02   4.4355239e+02   4.8667366e+02   5.6391320e+02   6.5140866e+02   7.1790599e+02   7.3454704e+02   6.8228060e+02   5.5916049e+02   3.8611500e+02   1.9322498e+02   1.5669307e+01  -1.2007675e+02  -2.0460689e+02  -2.4143230e+02  -2.4668341e+02  -2.3536472e+02  -2.2164931e+02  -2.1368537e+02  -2.1058207e+02  -2.1090046e+02  -2.0452916e+02  -1.8473938e+02  -1.4183430e+02  -7.6260329e+01   4.8184907e+00   8.4024739e+01   1.4058488e+02   1.5595153e+02   1.2378603e+02   5.4703651e+01  -2.7456502e+01  -9.1638983e+01  -1.1460825e+02  -8.7435206e+01  -2.0354026e+01   6.4925993e+01   1.3990981e+02   1.8218037e+02   1.7891238e+02   1.2962523e+02   5.0650888e+01  -3.5832018e+01  -1.0392331e+02  -1.3299773e+02  -1.1400569e+02  -5.3055930e+01   2.8548052e+01   1.0518720e+02   1.4983341e+02   1.5044556e+02   1.0948016e+02   4.2068999e+01  -2.6193479e+01  -7.3501313e+01  -8.1799166e+01  -5.0900522e+01   1.3202254e+01   8.7576967e+01   1.5242240e+02   1.8402246e+02   1.7203256e+02   1.1976015e+02   4.3066568e+01  -3.3078069e+01  -8.4960631e+01  -9.8048447e+01  -7.0928909e+01  -1.2360652e+01   5.9220403e+01   1.2193887e+02   1.5845943e+02   1.5714774e+02   1.1711613e+02   4.8857352e+01  -2.8414072e+01  -9.0216379e+01  -1.1365780e+02  -9.0175018e+01  -2.4311879e+01   5.9030770e+01   1.3199023e+02   1.6872774e+02   1.5844132e+02   1.0715425e+02   3.5063794e+01  -3.4340342e+01  -7.9820080e+01  -8.9173574e+01  -6.0761190e+01  -2.9988459e+00   6.6660878e+01   1.2929129e+02   1.6649159e+02   1.6525707e+02   1.2351448e+02   5.2187721e+01  -2.5906706e+01  -8.3697181e+01  -1.0057709e+02  -6.8730987e+01   1.6415887e+00   8.7597041e+01   1.5916362e+02   1.9234782e+02   1.7586306e+02   1.1742290e+02   3.4543489e+01  -4.5758881e+01  -9.6673077e+01  -1.0422874e+02  -6.1412559e+01   1.6874344e+01   1.0832398e+02   1.8306587e+02   2.1565099e+02   1.9561257e+02   1.3149857e+02   4.7404170e+01  -2.8523446e+01  -7.0842409e+01  -6.6344997e+01  -2.1940922e+01   4.7672464e+01   1.1976728e+02   1.7356332e+02   1.9318672e+02   1.7205405e+02   1.1463240e+02   3.5688927e+01  -3.9408474e+01  -8.6510847e+01  -8.8118469e+01  -4.4037387e+01   3.3232673e+01   1.1850365e+02   1.8301327e+02   2.1036580e+02   1.9175181e+02   1.3745244e+02   6.3824648e+01  -3.5853887e+00  -4.4912390e+01  -4.6300856e+01  -6.3425780e+00   6.3799647e+01   1.4162018e+02   1.9949276e+02   2.1656903e+02   1.8581920e+02   1.2027804e+02   4.0777106e+01  -2.5106585e+01  -5.5942358e+01  -4.2644416e+01   1.0332740e+01   8.7147479e+01   1.6802209e+02   2.3056143e+02   2.5758904e+02   2.3998485e+02   1.8165040e+02   9.9971300e+01   2.0591596e+01  -2.6500876e+01  -2.5037529e+01   2.6587622e+01   1.1176000e+02   2.0033090e+02   2.6204454e+02   2.7532253e+02   2.3590746e+02   1.5855452e+02   7.0227819e+01   2.7004597e+00  -2.2388639e+01   4.5268209e+00   7.1232179e+01   1.5644301e+02   2.2970681e+02   2.6892291e+02   2.6706782e+02   2.2664842e+02   1.6213534e+02   9.3917651e+01   3.6757972e+01   5.8486464e+00   8.0177641e+00   4.5264177e+01   1.0773119e+02   1.7880483e+02   2.3469828e+02   2.5408775e+02   2.2734892e+02   1.6171388e+02   8.1979032e+01   1.5821578e+01  -9.1281181e+00   1.4086486e+01   7.9550002e+01   1.6273183e+02   2.3679440e+02   2.8024847e+02   2.8149768e+02   2.4285054e+02   1.7839032e+02   1.0742314e+02   5.1643661e+01   2.7211139e+01   4.0278675e+01   8.9052224e+01   1.5832331e+02   2.2898438e+02   2.7775753e+02   2.8965784e+02   2.5879708e+02   1.9298778e+02   1.1295411e+02   4.5365792e+01   1.3929741e+01   3.0075957e+01   8.9262068e+01   1.6875956e+02   2.4034700e+02   2.7908223e+02   2.7065930e+02   2.1999037e+02   1.4254382e+02   6.3332368e+01   5.8405590e+00  -1.4837107e+01   5.8764267e+00   6.0613603e+01   1.3211351e+02   1.9809152e+02   2.3704179e+02   2.3346737e+02   1.8821643e+02   1.1353233e+02   3.0801985e+01  -3.2632835e+01  -5.9293394e+01  -4.1501022e+01   9.4725888e+00   7.5733092e+01   1.3382243e+02   1.6356541e+02   1.5418610e+02   1.0741043e+02   3.4238226e+01  -4.5542397e+01  -1.1065999e+02  -1.4414078e+02  -1.3707011e+02  -9.1486876e+01  -2.3803740e+01   4.2418522e+01   8.4345198e+01   8.3864506e+01   3.8463789e+01  -3.9257046e+01  -1.2427670e+02  -1.9154166e+02  -2.1868156e+02  -1.9957572e+02  -1.4398569e+02  -7.1732184e+01  -1.0324606e+01   1.8910857e+01   1.6770179e+00  -5.7671391e+01  -1.4389003e+02  -2.3174595e+02  -2.9348308e+02  -3.0945465e+02  -2.7447175e+02  -2.0015094e+02  -1.1182805e+02  -4.3029119e+01  -1.6594109e+01  -4.4982378e+01  -1.1690867e+02  -2.1039058e+02  -2.9287181e+02  -3.3977789e+02  -3.3808013e+02  -2.8944074e+02  -2.1328811e+02  -1.3447673e+02  