   2.1029007e+02   1.9770623e+02   1.8096181e+02   1.6489827e+02   1.5119936e+02   1.3780240e+02   1.2727410e+02   1.2423834e+02   1.3293683e+02   1.5598508e+02   1.9135953e+02   2.3162051e+02   2.6834282e+02   2.9369760e+02   3.0910779e+02   3.1188866e+02   3.0378662e+02   2.8334207e+02   2.4802498e+02   1.9812208e+02   1.3638721e+02   6.9498127e+01   6.3886778e+00  -4.8457690e+01  -8.7661719e+01  -1.1046531e+02  -1.1504458e+02  -1.0257963e+02  -7.6073080e+01  -3.9942517e+01   5.5812102e-01   3.9011255e+01   7.2513519e+01   9.8269530e+01   1.1402462e+02   1.2028142e+02   1.1827459e+02   1.0471069e+02   8.3312280e+01   5.7230541e+01   3.0409283e+01   1.0988787e+01   3.8320667e+00   1.1239562e+01   2.7891839e+01   4.7028974e+01   5.9842207e+01   6.0024658e+01   4.6405481e+01   2.3580031e+01  -4.5514745e+00  -3.5412310e+01  -6.9598317e+01  -1.0897166e+02  -1.5699078e+02  -2.1023569e+02  -2.6406191e+02  -3.1129785e+02  -3.4489469e+02  -3.5844305e+02  -3.4948825e+02  -3.1760195e+02  -2.6820031e+02  -2.0913144e+02  -1.5308611e+02  -1.0790780e+02  -7.4892165e+01  -5.2166531e+01  -3.3228890e+01  -1.5704960e+01  -5.3519092e+00  -1.0304805e+01  -3.5529597e+01  -8.1419171e+01  -1.3645014e+02  -1.8481083e+02  -2.1591526e+02  -2.2373371e+02  -2.1489636e+02  -2.0155731e+02  -1.9203912e+02  -1.8830865e+02  -1.8935760e+02  -1.9057407e+02  -1.9119390e+02  -1.9590872e+02  -2.1168717e+02  -2.4483715e+02  -2.9230334e+02  -3.4916336e+02  -4.0125727e+02  -4.3986776e+02  -4.5735950e+02  -4.5269217e+02  -4.2773671e+02  -3.8935091e+02  -3.3920149e+02  -2.8135401e+02  -2.2068188e+02  -1.6417056e+02  -1.1920627e+02  -9.3941337e+01  -8.9817544e+01  -1.0330860e+02  -1.2791339e+02  -1.5839859e+02  -1.8925669e+02  -2.2231677e+02  -2.5642582e+02  -2.9210986e+02  -3.2712717e+02  -3.5484118e+02  -3.7236563e+02  -3.7846529e+02  -3.7522891e+02  -3.6656193e+02  -3.5857086e+02  -3.5392552e+02  -3.5428844e+02  -3.5989117e+02  -3.7031696e+02  -3.8652139e+02  -4.0608936e+02  -4.2969494e+02  -4.5270206e+02  -4.6882482e+02  -4.7175711e+02  -4.5668480e+02  -4.2260886e+02  -3.7243280e+02  -3.1379913e+02  -2.5469292e+02  -1.9986192e+02  -1.5312772e+02  -1.1567678e+02  -8.9423808e+01  -8.1530581e+01  -9.4142815e+01  -1.2737979e+02  -1.7857755e+02  -2.3575349e+02  -2.9023138e+02  -3.3634428e+02  -3.7012356e+02  -3.9588446e+02  -4.1263246e+02  -4.1923998e+02  -4.1537287e+02  -4.0018034e+02  -3.7579341e+02  -3.4570226e+02  -3.1709891e+02  -2.9227565e+02  -2.7416157e+02  -2.6406050e+02  -2.6562553e+02  -2.7807279e+02  -2.9960506e+02  -3.2698569e+02  -3.4918362e+02  -3.5699975e+02  -3.4258697e+02  -3.0679046e+02  -2.5325853e+02  -1.9430582e+02  -1.3954329e+02  -9.6322061e+01  -6.8063017e+01  -5.4560303e+01  -5.4350977e+01  -6.5234915e+01  -8.9009838e+01  -1.2345775e+02  -1.6858667e+02  -2.2209730e+02  -2.8001483e+02  -3.3740443e+02  -3.8807766e+02  -4.2519869e+02  -4.4571259e+02  -4.4654141e+02  -4.2552513e+02  -3.8711810e+02  -3.3888378e+02  -2.8985745e+02  -2.4786337e+02  -2.1787830e+02  -2.0352667e+02  -2.0077354e+02  -2.0685551e+02  -2.1645565e+02  -2.2309677e+02  -2.2569664e+02  -2.2320688e+02  -2.1424637e+02  -1.9964049e+02  -1.7978995e+02  -1.5181698e+02  -1.1646627e+02  -7.4771997e+01  -3.1533970e+01   9.3273019e+00   4.0450095e+01   5.8653558e+01   6.3417172e+01   5.4151160e+01   3.2218797e+01  -2.9556579e-01  -4.0045112e+01  -8.3047906e+01  -1.2140234e+02  -1.4499829e+02  -1.4813169e+02  -1.2694279e+02  -8.4621597e+01  -2.7354693e+01   3.5978521e+01   9.7318811e+01   1.5208098e+02   1.9686164e+02   2.2910783e+02   2.4765872e+02   2.4809061e+02   2.2982207e+02   1.9596842e+02   1.5196865e+02   1.0803845e+02   7.3526253e+01   5.3261766e+01   4.5987408e+01   4.6951132e+01   5.1716942e+01   5.7219395e+01   6.3055038e+01   7.0971083e+01   8.0484408e+01   8.4545886e+01   7.7158471e+01   5.1862703e+01   9.0213283e+00  -4.7139121e+01  -1.0573880e+02  -1.5968273e+02  -2.0327089e+02  -2.3590145e+02  -2.5677525e+02  -2.6850877e+02  -2.6757446e+02  -2.5051005e+02  -2.1386827e+02  -1.5991291e+02  -9.6100289e+01  -3.2413605e+01   2.2363234e+01   6.2337769e+01   8.6077677e+01   9.4983087e+01   9.2416103e+01   7.8573455e+01   5.6122714e+01   2.6653364e+01  -5.9810748e+00  -3.6340012e+01  -5.9999909e+01  -7.2003970e+01  -7.3097593e+01  -6.1718688e+01  -4.1746325e+01  -2.1043417e+01  -4.8577413e+00  -1.1651883e+00  -1.3046578e+01  -3.9185631e+01  -7.3559001e+01  -1.1036351e+02  -1.4519331e+02  -1.7544600e+02  -2.0390515e+02  -2.3042242e+02  -2.5260860e+02  -2.6344060e+02  -2.5370230e+02  -2.2019847e+02  -1.6471097e+02  -9.6700381e+01  -2.4790022e+01   3.9901497e+01   9.0493438e+01   1.2404666e+02   1.3914694e+02   1.3429279e+02   1.1203853e+02   7.3875502e+01   2.6869455e+01  -2.3896575e+01  -6.6998157e+01  -9.5374207e+01  -1.0196639e+02  -8.3209220e+01  -3.6307087e+01   3.5736160e+01   1.2933620e+02   2.3876286e+02   3.5472850e+02   4.6304771e+02   5.5327650e+02   6.1324157e+02   6.4138653e+02   6.3788547e+02   6.1350797e+02   5.7625175e+02   5.3579302e+02   4.9682803e+02   4.6239611e+02   4.3527664e+02   4.1854348e+02   4.1733967e+02   4.3690597e+02   4.7486285e+02   5.2371195e+02   5.7049303e+02   5.9951147e+02   5.9404167e+02   5.4491433e+02   4.4891043e+02   3.1191039e+02   1.4377889e+02  -3.5999347e+01  -2.0988505e+02  -3.6097622e+02  -4.7273594e+02  -5.3766098e+02  -5.5080412e+02  -5.1608371e+02  -4.4134218e+02  -3.4214898e+02  -2.3937797e+02  -1.5161884e+02  -9.0504478e+01  -5.8046946e+01  -4.8072889e+01  -4.8835218e+01  -5.3853743e+01  -5.9005523e+01  -6.4852093e+01  -7.3157768e+01  -8.0527228e+01  -8.2074150e+01  -7.2027739e+01  -4.9192391e+01  -1.5195004e+01   2.4516675e+01   6.6927964e+01   1.1093221e+02   1.5696570e+02   1.9971929e+02   2.2983276e+02   2.3547926e+02   2.1276159e+02   1.6586591e+02   1.0695124e+02   4.9787282e+01   5.1867873e+00  -3.1694352e+01  -6.6098160e+01  -1.0335127e+02  -1.3940815e+02  -1.6118156e+02  -1.5561894e+02  -1.1951709e+02  -6.2102354e+01  -4.3425062e-01   4.9286054e+01   7.9409093e+01   9.4439331e+01   1.0146612e+02   1.0636733e+02   1.0976024e+02   1.0670898e+02   9.6230921e+01   8.0671246e+01   6.8033392e+01   6.6358588e+01   8.0241303e+01   1.0854878e+02   1.4738506e+02   1.9330654e+02   2.4076153e+02   2.8469607e+02   3.2024461e+02   3.4041234e+02   3.3965665e+02   3.1528733e+02   2.7062981e+02   2.1092608e+02   1.4698391e+02   8.3617502e+01   2.8951663e+01  -1.5320879e+01  -4.3632216e+01  -5.6092186e+01  -4.8829286e+01  -2.2076018e+01   2.2011823e+01   8.1777146e+01   1.4766795e+02   2.1094792e+02   2.6141697e+02   2.9304699e+02   3.0645001e+02   3.0411864e+02   2.9440990e+02   2.8327776e+02   2.7279385e+02   2.6452404e+02   2.5784760e+02   2.5531302e+02   2.6211956e+02   2.7979534e+02   3.0611690e+02   3.3528105e+02   3.6030609e+02   3.7360694e+02   3.7566605e+02   3.7070711e+02   3.6127858e+02   3.4766578e+02   3.2607261e+02   2.9154503e+02   2.4564322e+02   1.9390284e+02   1.4715490e+02   1.1379300e+02   9.8084284e+01   9.6615348e+01   1.0694684e+02   1.2852294e+02   1.6184853e+02   2.1091179e+02   2.7179714e+02   3.3940894e+02   4.0021146e+02   4.4588920e+02   4.7084176e+02   4.7645047e+02   4.6708420e+02   4.4884653e+02   4.2310108e+02   3.9284119e+02   3.5999003e+02   3.2872656e+02   3.0592836e+02   2.9380568e+02   2.9377561e+02   3.0559150e+02   3.2270814e+02   3.3983149e+02   3.5257593e+02   3.5713739e+02   3.5188894e+02   3.3581508e+02   3.0872312e+02   2.7220054e+02   2.2932080e+02   1.8513538e+02   1.4701848e+02   1.2295138e+02   1.2084240e+02   1.4097425e+02   1.8165424e+02   2.3411595e+02   2.8868809e+02   3.3821063e+02   3.7964544e+02   4.1580274e+02   4.4608910e+02   4.7018040e+02   4.8253184e+02   4.7765991e+02   4.5216045e+02   4.0746233e+02   3.5335106e+02   2.9832670e+02   2.5188267e+02   2.1580109e+02   1.9255856e+02   1.7791964e+02   1.6977083e+02   1.6821398e+02   1.7190372e+02   1.8058040e+02   1.9172342e+02   2.0123404e+02   2.0405299e+02   1.9562710e+02   1.7516005e+02   1.4261175e+02   1.0444549e+02   6.9156095e+01   4.1642854e+01   2.7512497e+01   2.5407049e+01   3.4449522e+01   5.3884077e+01   8.2962273e+01   1.2409398e+02   1.7424596e+02   2.2953824e+02   2.7896133e+02   3.1512091e+02   3.2991242e+02   3.2303711e+02   2.9929132e+02   2.6159105e+02   2.1372869e+02   1.5789373e+02   9.8020827e+01   3.7050631e+01  -1.4799362e+01  -5.2659273e+01  -7.2445242e+01  -7.7056565e+01  -7.0308036e+01  -5.6610066e+01  -3.7442427e+01  -1.6695214e+01   3.0324762e+00   1.9079909e+01   2.3230023e+01   1.5004549e+01  -4.2911493e+00  -2.8778400e+01  -4.9441265e+01  -6.1727818e+01  -6.6233245e+01  -6.4370153e+01  -5.6933000e+01  -4.4477433e+01  -2.4460150e+01   5.8826736e+00   4.3905133e+01   8.5122668e+01   1.2090973e+02   1.4223207e+02   1.4531621e+02   1.2916626e+02   9.5858399e+01   4.9572261e+01  -6.6466622e+00  -6.7363947e+01  -1.2941131e+02  -1.8863466e+02  -2.4063819e+02  -2.7842759e+02  -2.9986971e+02  -3.0390946e+02  -2.9151786e+02  -2.6938079e+02  -2.4237137e+02  -2.1487884e+02  -1.8808438e+02  -1.6428111e+02  -1.4432914e+02  -1.3331744e+02  -1.3547612e+02  -1.5234867e+02  -1.7819822e+02  -2.0459029e+02  -2.2107058e+02  -2.2484331e+02  -2.1535576e+02  -1.9670766e+02  -1.7382738e+02  -1.4538931e+02  -1.1148180e+02  -7.2068978e+01  -3.1318280e+01  -1.8843132e+00   5.7541421e+00  -1.5186926e+01  -6.2493553e+01  -1.2890974e+02  -1.9836136e+02  -2.6142143e+02  -3.1295722e+02  -3.5087577e+02  -3.7787106e+02  -3.9407490e+02  -3.9552709e+02  -3.7840340e+02  -3.3997216e+02  -2.8628611e+02  -2.2565071e+02  -1.6894006e+02  -1.2485095e+02  -9.5193548e+01  -7.8311894e+01  -6.7709080e+01  -6.1924878e+01  -6.1678587e+01  -7.0255071e+01  -9.0078784e+01  -1.1739571e+02  -1.4496908e+02  -1.6269297e+02  -1.6203963e+02  -1.4227926e+02  -1.0744189e+02  -6.7026591e+01  -3.0497986e+01  -5.6386441e+00   4.1533641e+00  -2.4747679e+00  -2.1303202e+01  -4.9219386e+01  -8.5151645e+01  -1.2426845e+02  -1.6842034e+02  -2.1176734e+02  -2.5251117e+02  -2.8363510e+02  -2.9955443e+02  -2.9459055e+02  -2.6820555e+02  -2.2196519e+02  -1.6123430e+02  -9.2643808e+01  -2.4398706e+01   3.5482550e+01   8.1898195e+01   1.0726769e+02   1.1493315e+02   1.0730620e+02   9.1744238e+01   7.5174995e+01   6.0522295e+01   4.7012047e+01   3.2452936e+01   1.4589082e+01  -4.3882603e+00  -1.8105047e+01  -2.1010503e+01  -1.0125719e+01   1.3429141e+01   4.1062831e+01   6.1408992e+01   6.7993388e+01   5.6779332e+01   3.2515120e+01  -1.6654421e-01  -3.4912812e+01  -6.6059062e+01  -9.4228246e+01  -1.1904160e+02  -1.3784603e+02  -1.4636014e+02  -1.3715127e+02  -1.0687811e+02  -5.8264009e+01   2.1979539e+00   6.4771302e+01   1.2016650e+02   1.6330574e+02   1.9506274e+02   2.1588110e+02   2.2519124e+02   2.2057218e+02   1.9763839e+02   1.5666840e+02   1.0402565e+02   4.9449418e+01   4.3108741e+00  -2.4067247e+01  -3.4937345e+01  -3.3431534e+01  -2.4605703e+01  -1.4220187e+01  -3.2894104e+00   1.0535661e+01   2.7666222e+01   4.4258748e+01   5.3788097e+01   4.9431275e+01   2.8208495e+01  -1.0138766e+01  -5.5516782e+01  -9.9046493e+01  -1.3075106e+02  -1.4627073e+02  -1.4150690e+02  -1.1710666e+02  -7.4719849e+01  -1.7991111e+01   4.8715360e+01   1.1882453e+02   1.8222761e+02   2.3003963e+02   2.5733808e+02   2.6178553e+02   2.4705429e+02   2.1799670e+02   1.7953872e+02   1.3431056e+02   8.3063152e+01   2.9947070e+01  -1.9251293e+01  -5.9816289e+01  -8.3660079e+01  -8.6658725e+01  -7.1725073e+01  -4.2611681e+01  -7.4734834e+00   2.6748646e+01   5.5038131e+01   7.8009588e+01   9.5515906e+01   1.0707349e+02   1.1204830e+02   1.0957820e+02   9.6243166e+01   7.5529473e+01   5.3161679e+01   3.4395061e+01   2.7366376e+01   3.4593192e+01   5.8692562e+01   9.7359619e+01   1.4461223e+02   1.9327141e+02   2.3361516e+02   2.5711968e+02   2.5818954e+02   2.3777908e+02   2.0082148e+02   1.5540696e+02   1.0668467e+02   5.7499713e+01   6.8112419e+00  -4.5032701e+01  -9.5069530e+01  -1.3744471e+02  -1.6698875e+02  -1.7757401e+02  -1.7220626e+02  -1.5684086e+02  -1.3695026e+02  -1.1590237e+02  -9.6234117e+01  -7.6917764e+01  -6.2718500e+01  -5.4728018e+01  -6.0135732e+01  -7.7265724e+01  -1.0487256e+02  -1.3565300e+02  -1.6590214e+02  -1.9022243e+02  -2.0718754e+02  -2.1386861e+02  -2.0714983e+02  -1.8778857e+02  -1.5520991e+02  -1.1706242e+02  -8.1593476e+01  -6.0928694e+01  -6.0352239e+01  -8.1686621e+01  -1.1885652e+02  -1.6269806e+02  -2.0704154e+02  -2.4805965e+02  -2.8783746e+02  -3.2909103e+02  -3.7094080e+02  -4.0963941e+02  -4.3515797e+02  -4.3755472e+02  -4.1407763e+02  -3.6698812e+02  -3.0713010e+02  -2.4830145e+02  -2.0051190e+02  -1.6922517e+02  -1.5268536e+02  -1.4541566e+02  -1.4395377e+02  -1.4685677e+02  -1.5397149e+02  -1.6793139e+02  -1.8780981e+02  -2.0983961e+02  -2.2710007e+02  -2.3407693e+02  -2.2701887e+02  -2.0504189e+02  -1.7396743e+02  -1.3991618e+02  -1.0971341e+02  -8.9187352e+01  -8.0456938e+01  -8.6307162e+01  -1.0773883e+02  -1.4275634e+02  -1.9042513e+02  -2.4519414e+02  -3.0144313e+02  -3.5218357e+02  -3.8782164e+02  -4.0488218e+02  -4.0159755e+02  -3.8128277e+02  -3.5044635e+02  -3.1462116e+02  -2.7593654e+02  -2.3648751e+02  -1.9558298e+02  -1.5497161e+02  -1.2114611e+02  -9.7816255e+01  -8.6618606e+01  -8.2098797e+01  -7.0966134e+01  -4.4584266e+01   4.3705041e+00   7.3172559e+01   1.5333210e+02   2.3499825e+02   3.1055987e+02   3.7749688e+02   4.3450025e+02   4.7884300e+02   5.0894978e+02   5.2108556e+02   5.1306844e+02   4.8590724e+02   4.4227540e+02   3.8775465e+02   3.2881287e+02   2.7251689e+02   2.2701717e+02   2.0087193e+02   1.9630110e+02   2.0847021e+02   2.2690111e+02   2.4008980e+02   2.3938453e+02   2.2114275e+02   1.8714862e+02   1.4123769e+02   9.1048311e+01   3.9801593e+01  -1.9913609e+00  -2.9987877e+01  -3.7707271e+01  -2.8499513e+01  -6.7909576e+00   2.0426253e+01   4.5927454e+01   6.9500612e+01   9.5203774e+01   1.2273311e+02   1.5398493e+02   1.8386755e+02   2.0738630e+02   2.2198687e+02   2.2910809e+02   2.3286670e+02   2.3577942e+02   2.3842263e+02   2.3693874e+02   2.2931935e+02   2.1242570e+02   1.8774301e+02   1.5790128e+02   1.3102752e+02   1.1301721e+02   1.1082479e+02   1.2787025e+02   1.6264425e+02   2.1056763e+02   2.6412724e+02   3.1527288e+02   3.5902529e+02   3.9121605e+02   4.1426303e+02   4.2887890e+02   4.3361951e+02   4.2919963e+02   4.1153366e+02   3.8049635e+02   3.3643431e+02   2.8549287e+02   2.3484681e+02   1.9193592e+02   1.6180556e+02   1.4763792e+02   1.4853382e+02   1.6157161e+02   1.8413216e+02   2.1344373e+02   2.4527116e+02   2.7365492e+02   2.9459940e+02   3.0361688e+02   2.9805407e+02   2.8015748e+02   2.5486971e+02   2.2738545e+02   2.0352887e+02   1.8703827e+02   1.8085687e+02   1.8752785e+02   2.0977811e+02   2.4634937e+02   2.9410263e+02   3.4538422e+02   3.8960689e+02   4.2196950e+02   4.3821989e+02   4.4235915e+02   4.3519273e+02   4.1865378e+02   3.8985410e+02   3.4585423e+02   2.8718113e+02   2.2115588e+02   1.5811859e+02   1.0865165e+02   7.9902869e+01   7.1096240e+01   8.0293572e+01   1.0043640e+02   1.2866070e+02   1.6184053e+02   1.9628660e+02   2.2850578e+02   2.5391947e+02   2.6944538e+02   2.7686574e+02   2.7593432e+02   2.6621007e+02   2.4864266e+02   2.2296790e+02   1.9399767e+02   1.6990237e+02   1.6158530e+02   1.7323550e+02   2.0512164e+02   2.4565641e+02   2.8472441e+02   3.1322999e+02   3.2879191e+02   3.3349087e+02   3.3056868e+02   3.1898363e+02   2.9674538e+02   2.5998183e+02   2.0972644e+02   1.4745107e+02   8.3404630e+01   2.3842795e+01  -2.2750036e+01  -5.1344924e+01  -5.7868675e+01  -4.0454746e+01  -4.1219265e-01   5.7082742e+01   1.2053117e+02   1.8081966e+02   2.2799818e+02   2.5602502e+02   2.6538095e+02   2.6047247e+02   2.4577297e+02   2.2568564e+02   2.0214941e+02   1.7704397e+02   1.4947600e+02   1.2404522e+02   1.0419040e+02   9.6704882e+01   1.0248743e+02   1.2056248e+02   1.4536663e+02   1.6726211e+02   1.8220714e+02   1.8549071e+02   1.7643128e+02   1.5594256e+02   1.2588766e+02   8.5170897e+01   3.6552166e+01  -1.7794395e+01  -7.2920485e+01  -1.2185890e+02  -1.5939433e+02  -1.7674713e+02  -1.7207939e+02  -1.4175468e+02  -9.1316805e+01  -2.6188419e+01   3.9870867e+01   9.7477007e+01   1.4241091e+02   1.7238158e+02   1.8966351e+02   1.9552552e+02   1.9039649e+02   1.7174815e+02   1.4071336e+02   9.8492706e+01   5.5631055e+01   1.8261644e+01  -7.5797133e+00  -1.8478707e+01  -1.7935152e+01  -7.3858692e+00   8.0430816e+00   2.6019760e+01   4.3657518e+01   5.5243916e+01   5.7946644e+01   4.8398459e+01   2.9079976e+01   3.4459893e+00  -2.6223797e+01  -5.7231437e+01  -8.5071651e+01  -1.0916586e+02  -1.2362065e+02  -1.2290888e+02  -1.0438064e+02  -6.5534003e+01  -1.0007229e+01   5.5709096e+01   1.2380393e+02   1.8385315e+02   2.2961048e+02   2.5677852e+02   2.6565912e+02   2.5759821e+02   2.3816735e+02   2.1005923e+02   1.7471228e+02   1.3571533e+02   9.4072029e+01   5.4423540e+01   2.2332293e+01   2.7216366e+00  -2.4555841e+00   5.7226285e+00   2.3363530e+01   4.4220322e+01   6.5332748e+01   8.4758566e+01   9.9295132e+01   1.0909198e+02   1.1006983e+02   1.0108877e+02   8.1841531e+01   5.6486218e+01   2.9067653e+01   4.8062307e+00  -9.6491901e+00  -1.2902055e+01  -2.3285928e+00   2.2634195e+01   6.0474654e+01   1.0987178e+02   1.6520658e+02   2.2425413e+02   2.7796539e+02   3.1923648e+02   3.3856347e+02   3.3149617e+02   2.9683046e+02   2.3951353e+02   1.7127407e+02   1.0402600e+02   4.6124340e+01   1.5710433e+00  -2.9724880e+01  -4.8536293e+01  -5.5679668e+01  -4.9103848e+01  -2.7696842e+01   7.1609342e+00   5.0234571e+01   9.3176114e+01   1.2826845e+02   1.5107062e+02   1.5987749e+02   1.5493188e+02   1.3836176e+02   1.1085160e+02   7.3094241e+01   3.3098764e+01  -5.5033831e-01  -1.8380191e+01  -1.2567734e+01   1.5746065e+01   6.1411251e+01   1.0950152e+02   1.5179593e+02   1.8044631e+02   1.9774259e+02   2.0487356e+02   2.0458168e+02   1.9462324e+02   1.6897130e+02   1.2573282e+02   6.5788641e+01  -1.7970935e+00  -6.7522022e+01  -1.2024738e+02  -1.5495211e+02  -1.7034050e+02  -1.7022463e+02  -1.6063257e+02  -1.4362976e+02  -1.2287943e+02  -9.6001803e+01  -6.4819170e+01  -3.0587678e+01  -1.3189267e+00   1.8719099e+01   2.2255798e+01   8.9948578e+00  -1.8680684e+01  -5.1232626e+01  -8.1648192e+01  -1.0018234e+02  -1.0605977e+02  -9.6039194e+01  -7.3762336e+01  -4.0838298e+01  -3.6509482e+00   2.9086140e+01   5.0967723e+01   5.5641899e+01   4.4561518e+01   2.1639428e+01  -6.2820460e+00  -3.6212736e+01  -6.9079363e+01  -1.1006720e+02  -1.6419598e+02  -2.2905532e+02  -2.9260394e+02  -3.4192771e+02  -3.6485685e+02  -3.5636106e+02  -3.2467073e+02  -2.8110843e+02  -2.3665363e+02  -1.9729849e+02  -1.6328047e+02  -1.3229305e+02  -1.0477869e+02  -8.3396680e+01  -7.7734727e+01  -9.0300078e+01  -1.2178906e+02  -1.6559567e+02  -2.0948848e+02  -2.4436283e+02  -2.6696489e+02  -2.7748891e+02  -2.7896650e+02  -2.7339506e+02  -2.6158814e+02  -2.4276853e+02  -2.1795980e+02  -1.9425967e+02  -1.8109485e+02  -1.8655982e+02  -2.1293116e+02  -2.6042567e+02  -3.2123724e+02  -3.8985079e+02  -4.5859328e+02  -5.2135021e+02  -5.6735318e+02  -5.9093431e+02  -5.8714663e+02  -5.5716776e+02  -5.0843188e+02  -4.5347180e+02  -4.0049037e+02  -3.5371744e+02  -3.0963616e+02  -2.6818018e+02  -2.3200661e+02  -2.0693959e+02  -2.0465661e+02  -2.2765670e+02  -2.7351302e+02  -3.2837337e+02  -3.7864024e+02  -4.1173774e+02  -4.2786170e+02  -4.3161227e+02  -4.3042441e+02  -4.2973968e+02  -4.2889777e+02  -4.2576420e+02  -4.1714659e+02  -4.0308048e+02  -3.9008325e+02  -3.8447916e+02  -3.9488911e+02  -4.2195597e+02  -4.6234499e+02  -5.0702104e+02  -5.4376697e+02  -5.6587446e+02  -5.7091489e+02  -5.6548668e+02  -5.5383762e+02  -5.4027785e+02  -5.2232577e+02  -4.9456561e+02  -4.5223276e+02  -3.9558023e+02  -3.3210815e+02  -2.7575717e+02  -2.3917129e+02  -2.3012682e+02  -2.5020201e+02  -2.9073006e+02  -3.4204076e+02  -3.9695738e+02  -4.4748200e+02  -4.9057782e+02  -5.2494413e+02  -5.4968146e+02  -5.6275932e+02  -5.6222616e+02  -5.5213571e+02  -5.3320213e+02  -5.1223341e+02  -4.9342136e+02  -4.8158656e+02  -4.8048174e+02  -4.9024917e+02  -5.1110665e+02  -5.3930520e+02  -5.7336481e+02  -6.0855641e+02  -6.3856499e+02  -6.5924347e+02  -6.6735470e+02  -6.6119962e+02  -6.3804494e+02  -5.9829032e+02  -5.4634970e+02  -4.8625975e+02  -4.2606569e+02  -3.7706391e+02  -3.4400128e+02  -3.2933679e+02  -3.3266327e+02  -3.5036622e+02  -3.7956506e+02  -4.1734532e+02  -4.6225115e+02  -5.1097356e+02  -5.5614369e+02  -5.9312698e+02  -6.1471360e+02  -6.2061580e+02  -6.1170714e+02  -5.8997504e+02  -5.5819515e+02  -5.1637361e+02  -4.7003448e+02  -4.2444916e+02  -3.8991277e+02  -3.7316512e+02  -3.7603423e+02  -3.9234978e+02  -4.1513747e+02  -4.3406613e+02  -4.4608621e+02  -4.5017114e+02  -4.4705973e+02  -4.3689702e+02  -4.1468492e+02  -3.7647931e+02  -3.2230456e+02  -2.5979455e+02  -1.9860650e+02  -1.4968494e+02  -1.1747351e+02  -1.0418041e+02  -1.0519591e+02  -1.1874125e+02  -1.4379703e+02  -1.8132246e+02  -2.3273835e+02  -2.9261111e+02  -3.4844889e+02  -3.8850564e+02  -4.0448766e+02  -3.9507046e+02  -3.7015887e+02  -3.3685738e+02  -3.0315673e+02  -2.6737957e+02  -2.2346103e+02  -1.7116040e+02  -1.1330968e+02  -6.3198898e+01  -3.6179394e+01  -4.1536602e+01  -7.5647169e+01  -1.2339714e+02  -1.6080224e+02  -1.7074431e+02  -1.4272213e+02  -7.8513263e+01   1.3344258e+01   1.2131709e+02   2.3692168e+02   3.5704433e+02   4.7949372e+02   6.0171189e+02   7.1454742e+02   8.0498626e+02   8.5974014e+02   8.6761166e+02   8.2958475e+02   7.5462538e+02   6.6221696e+02   5.7068960e+02   4.9443110e+02   4.4208297e+02   4.1382720e+02   4.0785807e+02   4.2310839e+02   4.5526591e+02   4.9907800e+02   5.4490341e+02   5.7943815e+02   5.8751922e+02   5.5790006e+02   4.8589552e+02   3.7781227e+02   2.4710928e+02   1.0826944e+02  -2.2597390e+01  -1.3636463e+02  -2.2162751e+02  -2.7146953e+02  -2.8315160e+02  -2.5563046e+02  -1.9283610e+02  -1.0867070e+02  -1.7729468e+01   6.5217944e+01   1.2691448e+02   1.6537715e+02   1.7862804e+02   1.7229475e+02   1.4799631e+02   1.1046064e+02   6.3354592e+01   1.1847100e+01  -3.6038219e+01  -7.4196091e+01  -9.7235670e+01  -1.0419390e+02  -9.4070544e+01  -6.9113194e+01  -3.0812918e+01   1.9389738e+01   7.4650697e+01   1.2944917e+02   1.7739982e+02   2.1104393e+02   2.3051605e+02   2.3399897e+02   2.2290880e+02   1.9978749e+02   1.6591926e+02   1.2472420e+02   8.0011707e+01   3.8194651e+01   7.5701507e+00  -9.2369464e+00  -8.5935967e+00   9.1001052e+00   3.8651843e+01   7.5565804e+01   1.0871091e+02   1.3007664e+02   1.3351189e+02   1.1634510e+02   8.1799888e+01   3.8147926e+01  -7.4234499e+00  -4.7212545e+01  -7.9620933e+01  -1.0390477e+02  -1.2095917e+02  -1.3102961e+02  -1.3125384e+02  -1.1796002e+02  -8.8678983e+01  -4.1866659e+01   2.0628489e+01   8.9284276e+01   1.5271612e+02   1.9847435e+02   2.1672291e+02   2.0671052e+02   1.7497256e+02   1.3023793e+02   7.9054291e+01   2.6182392e+01  -2.7159581e+01  -8.1100731e+01  -1.3086446e+02  -1.6735919e+02  -1.8253555e+02  -1.7346420e+02  -1.4512644e+02  -1.0794824e+02  -7.5143042e+01  -5.3953892e+01  -4.5899333e+01  -4.7126152e+01  -5.4957667e+01  -6.9699258e+01  -9.1727955e+01  -1.2185437e+02  -1.5690783e+02  -1.8846538e+02  -2.0662538e+02  -2.0571987e+02  -1.8686795e+02  -1.5329302e+02  -1.1335921e+02  -7.0318754e+01  -2.4802245e+01   2.2882709e+01   6.7552217e+01   9.9940793e+01   1.1338466e+02   1.0030263e+02   6.5410819e+01   1.6641583e+01  -3.5222486e+01  -8.4151898e+01  -1.2963121e+02  -1.7347749e+02  -2.1660863e+02  -2.5166086e+02  -2.7037526e+02  -2.6570384e+02  -2.3862351e+02  -2.0068507e+02  -1.6435994e+02  -1.4127402e+02  -1.3443283e+02  -1.3954291e+02  -1.4752078e+02  -1.5425524e+02  -1.5965382e+02  -1.6996639e+02  -1.8834015e+02  -2.1253001e+02  -2.3566639e+02  -2.4897469e+02  -2.4634730e+02  -2.2868854e+02  -2.0198370e+02  -1.7108053e+02  -1.4321089e+02  -1.1631470e+02  -9.1256665e+01  -7.0039585e+01  -5.9120467e+01  -6.5921349e+01  -9.6601796e+01  -1.5012509e+02  -2.1961120e+02  -2.9193132e+02  -3.5746671e+02  -4.0693228e+02  -4.3715724e+02  -4.4772027e+02  -4.3935636e+02  -4.1308291e+02  -3.7002979e+02  -3.1299744e+02  -2.4880336e+02  -1.8550484e+02  -1.2860232e+02  -8.4329710e+01  -5.1125588e+01  -2.9355176e+01  -1.8317878e+01  -1.6537519e+01  -2.1293649e+01  -2.7320027e+01  -2.9573950e+01  -1.8970436e+01   6.0193018e+00   4.2987938e+01   8.9483123e+01   1.3618526e+02   1.8034926e+02   2.1845056e+02   2.4894871e+02   2.6906487e+02   2.7546776e+02   2.6577372e+02   2.3779192e+02   1.9547928e+02   1.4060824e+02   8.0190003e+01   1.8727296e+01  -3.6604681e+01  -7.8741784e+01  -1.0037540e+02  -9.6372707e+01  -6.7917354e+01  -2.0351776e+01   3.6257359e+01   9.2773222e+01   1.4277532e+02   1.8337451e+02   2.1494887e+02   2.3570384e+02   2.4398395e+02   2.3629673e+02   2.1404813e+02   1.8002748e+02   1.4071347e+02   1.0649636e+02   8.0922469e+01   6.8064011e+01   6.7099326e+01   7.8160549e+01   9.9468631e+01   1.3073706e+02   1.6878871e+02   2.0430143e+02   2.3058032e+02   2.3925034e+02   2.2777409e+02   1.9572224e+02   1.5075798e+02   1.0033481e+02   5.0146163e+01   7.3989729e+00  -2.4993191e+01  -4.2189674e+01  -3.9071222e+01  -1.5670334e+01   2.6675168e+01   7.9466425e+01   1.3546830e+02   1.8535906e+02   2.2352003e+02   2.5086161e+02   2.6857704e+02   2.8072556e+02   2.8456880e+02   2.8061815e+02   2.6338796e+02   2.3089034e+02   1.8594008e+02   1.3636416e+02   9.0222254e+01   5.7143065e+01   4.1864538e+01   4.5039180e+01   6.0328563e+01   8.3772929e+01   1.0838345e+02   1.3087572e+02   1.4844301e+02   1.5846308e+02   1.5604109e+02   1.4031349e+02   1.0846990e+02   6.4488591e+01   1.3619613e+01  -3.3315431e+01  -7.0713454e+01  -9.0963003e+01  -9.1096072e+01  -7.0229485e+01  -2.9734982e+01   2.4886971e+01   8.9415195e+01   1.5354508e+02   2.0967257e+02   2.4972170e+02   2.7090721e+02   2.7233179e+02   2.5733968e+02   2.2958039e+02   1.9077508e+02   1.4321740e+02   8.7075753e+01   2.6590174e+01  -3.2729439e+01  -8.1797432e+01  -1.1144757e+02  -1.1666486e+02  -1.0052523e+02  -6.6853586e+01  -2.7648872e+01   9.6444511e+00   3.4918013e+01   4.6127666e+01   4.0868143e+01   1.9716242e+01  -1.4704649e+01  -5.4947546e+01  -9.6222457e+01  -1.2906898e+02  -1.5012985e+02  -1.6091959e+02  -1.6148296e+02  -1.5385293e+02  -1.3524375e+02  -1.0095087e+02  -4.7968574e+01   1.7625808e+01   8.4440833e+01   1.3459142e+02   1.5446244e+02   1.3731374e+02   9.1646002e+01   3.2278148e+01  -2.5874315e+01  -7.4291257e+01  -1.1254546e+02  -1.4911386e+02  -1.8819547e+02  -2.2742889e+02  -2.5741524e+02  -2.6897902e+02  -2.5213396e+02  -2.0976128e+02  -1.5204488e+02  -9.4741597e+01  -5.1385634e+01  -3.0535045e+01  -3.2161826e+01  -5.0267529e+01  -7.7775364e+01  -1.0871225e+02  -1.3865479e+02  -1.6537749e+02  -1.8661392e+02  -1.9782638e+02  -1.9587796e+02  -1.7751441e+02  -1.4858851e+02  -1.1299442e+02  -7.8319142e+01  -4.9255876e+01  -2.8857202e+01  -1.4727437e+01  -7.2626901e+00  -9.0406620e+00  -2.4443127e+01  -5.9563050e+01  -1.1541046e+02  -1.8839171e+02  -2.6899976e+02  -3.4262562e+02  -3.9838421e+02  -4.2984634e+02  -4.3758074e+02  -4.2443555e+02  -3.9752320e+02  -3.6191210e+02  -3.2206768e+02  -2.8111808e+02  -2.4504345e+02  -2.1889667e+02  -2.0715989e+02  -2.0932114e+02  -2.2172686e+02  -2.3672747e+02  -2.5309463e+02  -2.6865109e+02  -2.8702667e+02  -3.0843578e+02  -3.2837039e+02  -3.3711288e+02  -3.2699869e+02  -2.9639169e+02  -2.5337506e+02  -2.1019850e+02  -1.8155649e+02  -1.7179498e+02  -1.7915448e+02  -1.9615260e+02  -2.1819103e+02  -2.4444181e+02  -2.7703068e+02  -3.2149545e+02  -3.7246012e+02  -4.2543720e+02  -4.6665203e+02  -4.9078086e+02  -4.9150445e+02  -4.7080448e+02  -4.3296307e+02  -3.8326580e+02  -3.2344770e+02  -2.6095587e+02  -2.0012598e+02  -1.4738200e+02  -1.0856424e+02  -8.9474025e+01  -9.2693269e+01  -1.1770119e+02  -1.5826984e+02  -2.0508303e+02  -2.4549360e+02  -2.6931562e+02  -2.6954355e+02  -2.4990117e+02  -2.1914573e+02  -1.8808671e+02  -1.6431732e+02  -1.4569549e+02  -1.2564606e+02  -1.0137923e+02  -7.6132633e+01  -6.0540795e+01  -6.7219629e+01  -1.0162379e+02  -1.6019895e+02  -2.2781060e+02  -2.8639387e+02  -3.2473863e+02  -3.4130559e+02  -3.4096439e+02  -3.2955498e+02  -3.1119646e+02  -2.8330138e+02  -2.4229202e+02  -1.8805549e+02  -1.2920838e+02  -7.5267605e+01  -3.6836524e+01  -1.6913002e+01  -1.7410199e+01  -3.2951766e+01  -5.9967234e+01  -9.7072782e+01  -1.4368475e+02  -1.9478268e+02  -2.4571896e+02  -2.8296604e+02  -3.0070175e+02  -2.9615458e+02  -2.7466405e+02  -2.4644986e+02  -2.1812258e+02  -1.9700440e+02  -1.8235295e+02  -1.7459560e+02  -1.7067879e+02  -1.7362266e+02  -1.8534219e+02  -2.0776113e+02  -2.4120440e+02  -2.8201720e+02  -3.2032808e+02  -3.4885347e+02  -3.5863462e+02  -3.4360723e+02  -3.0392550e+02  -2.4699525e+02  -1.8220933e+02  -1.1841860e+02  -6.1207024e+01  -1.5065910e+01   2.2424626e+01   5.1298427e+01   6.6698529e+01   6.5099494e+01   4.1228077e+01  -2.3064119e+00  -5.8622547e+01  -1.1333611e+02  -1.5438618e+02  -1.7480800e+02  -1.7535058e+02  -1.6285800e+02  -1.4336544e+02  -1.2189955e+02  -9.6012172e+01  -6.7112814e+01  -3.6691286e+01  -1.0537305e+01   4.9366324e+00   3.1766302e+00  -1.2292379e+01  -3.5938002e+01  -6.0573385e+01  -7.8944072e+01  -9.1468984e+01  -9.9034314e+01  -9.8732154e+01  -8.8442636e+01  -6.3178843e+01  -1.9145924e+01   4.0496059e+01   1.0613624e+02   1.6441845e+02   2.0505532e+02   2.2164322e+02   2.1536974e+02   1.9251943e+02   1.6171011e+02   1.3182780e+02   1.1066824e+02   1.0433190e+02   1.1745223e+02   1.5335876e+02   2.1528529e+02   2.9972713e+02   4.0203145e+02   5.1127314e+02   6.1643084e+02   7.0783724e+02   7.7984147e+02   8.3259322e+02   8.6584207e+02   8.7764444e+02   8.6588307e+02   8.2752943e+02   7.6661511e+02   6.9391691e+02   6.2439975e+02   5.7149411e+02   5.4530760e+02   5.4187848e+02   5.5157436e+02   5.6171885e+02   5.6249874e+02   5.4516594e+02   5.0750904e+02   4.4653216e+02   3.6425117e+02   2.6250035e+02   1.4664119e+02   2.6077633e+01  -8.6492801e+01  -1.7912713e+02  -2.4597962e+02  -2.8189512e+02  -2.9117602e+02  -2.7942177e+02  -2.5233093e+02  -2.1736043e+02  -1.7715529e+02  -1.3169329e+02  -8.2126458e+01  -3.1341708e+01   1.6699706e+01   5.8755075e+01   9.3119248e+01   1.1736056e+02   1.3187613e+02   1.3419346e+02   1.2397979e+02   9.9760181e+01   6.4384429e+01   2.7316839e+01  -5.1535829e+00  -2.4673829e+01  -2.8454654e+01  -1.8679066e+01   2.3646513e+00   3.0444049e+01   6.4816820e+01   1.0187972e+02   1.3294468e+02   1.4903698e+02   1.4560677e+02   1.2205668e+02   8.4012433e+01   4.0298079e+01  -5.3835755e+00  -5.6024473e+01  -1.1206414e+02  -1.7022312e+02  -2.1830693e+02  -2.4087417e+02  -2.3068037e+02  -1.9083835e+02  -1.3667401e+02  -8.4296451e+01  -4.2939713e+01  -1.2163380e+01   1.6982145e+01   4.6715294e+01   7.4108478e+01   8.6422050e+01   7.3144952e+01   3.4738677e+01  -1.8878941e+01  -7.2038579e+01  -1.0811650e+02  -1.2431548e+02  -1.2132322e+02  -1.0775979e+02  -8.7353420e+01  -6.1821880e+01  -3.3475951e+01  -5.5995061e+00   1.7308898e+01   2.6329037e+01   1.7838171e+01  -7.9429692e+00  -4.5652866e+01  -8.8783031e+01  -1.3196585e+02  -1.7051990e+02  -2.0318111e+02  -2.3092293e+02  -2.5275607e+02  -2.6440099e+02  -2.6174261e+02  -2.4100558e+02  -2.0162555e+02  -1.4683218e+02  -8.3998101e+01  -2.2839271e+01   2.9428392e+01   6.5864838e+01   8.0412670e+01   7.2255559e+01   4.1882133e+01  -5.1511855e+00  -6.1725339e+01  -1.1786258e+02  -1.6453429e+02  -1.9646377e+02  -2.1081653e+02  -2.0668610e+02  -1.8831139e+02  -1.5599771e+02  -1.1575429e+02  -7.2698679e+01  -3.7310789e+01  -1.4638520e+01  -9.5646280e+00  -2.2235098e+01  -4.5727987e+01  -7.7009154e+01  -1.1018174e+02  -1.4499733e+02  -1.7956027e+02  -2.1013080e+02  -2.3191870e+02  -2.3575977e+02  -2.1758322e+02  -1.7560517e+02  -1.1222035e+02  -3.9604481e+01   3.3922143e+01   9.6686105e+01   1.4350395e+02   1.7146539e+02   1.8255367e+02   1.7702101e+02   1.5847034e+02   1.2563249e+02   8.3869800e+01   3.5471709e+01  -1.1162858e+01  -4.9348339e+01  -7.2831064e+01  -7.8309063e+01  -7.0685334e+01  -5.1022533e+01  -2.4208039e+01   7.6238169e+00   4.5832222e+01   8.5071506e+01   1.2004486e+02   1.4210712e+02   1.4363482e+02   1.2311313e+02   8.6927948e+01   4.4891010e+01   9.5631662e+00  -1.0532539e+01  -1.4700421e+01  -4.7563157e+00   1.4487508e+01   4.3004336e+01   8.3633248e+01   1.3744945e+02   1.9937695e+02   2.6096361e+02   3.0921579e+02   3.3338208e+02   3.2958152e+02   3.0219228e+02   2.5894855e+02   2.0973217e+02   1.6108575e+02   1.1551157e+02   7.5648508e+01   3.9435363e+01   9.3709917e+00  -1.2031911e+01  -2.0528343e+01  -1.1122131e+01   1.9248567e+01   7.0277442e+01   1.3003029e+02   1.8675906e+02   2.2667946e+02   2.4260749e+02   2.3536973e+02   2.1293275e+02   1.8623568e+02   1.6274960e+02   1.4682516e+02   1.3791780e+02   1.3879727e+02   1.4984935e+02   1.7056648e+02   2.0129752e+02   2.3729245e+02   2.7603782e+02   3.1283910e+02   3.4657281e+02   3.7350785e+02   3.8908586e+02   3.8755526e+02   3.6537311e+02   3.2231928e+02   2.6430608e+02   2.0290673e+02   1.4766391e+02   1.0426905e+02   7.5720062e+01   5.9568481e+01   5.5355069e+01   6.5307593e+01   9.2339874e+01   1.3935116e+02   2.0078465e+02   2.6537025e+02   3.1995156e+02   3.5028703e+02   3.5571843e+02   3.3961829e+02   3.1255798e+02   2.8617612e+02   2.6176667e+02   2.3764512e+02   2.1237958e+02   1.8699238e+02   1.6724167e+02   1.6408083e+02   1.8037000e+02   2.1287970e+02   2.5158647e+02   2.8722117e+02   3.1299581e+02   3.3141065e+02   3.4303164e+02   3.4813271e+02   3.4011442e+02   3.0964085e+02   2.5347386e+02   1.8002491e+02   1.0268161e+02   4.0998221e+01   2.8558751e+00  -8.2953209e+00  -1.2449949e-02   1.7822582e+01   4.0986193e+01   7.0199166e+01   1.0667778e+02   1.4887699e+02   1.9432749e+02   2.3545540e+02   2.6327709e+02   2.7487757e+02   2.6961052e+02   2.4699546e+02   2.1132807e+02   1.6605808e+02   1.1602000e+02   6.7621603e+01   3.2100311e+01   1.4947696e+01   1.9580188e+01   4.4299618e+01   8.3548437e+01   1.2642414e+02   1.6438250e+02   1.9103317e+02   2.0191882e+02   1.9617096e+02   1.7395200e+02   1.3762197e+02   8.9605202e+01   3.6973019e+01  -1.4203525e+01  -5.6644984e+01  -8.7693915e+01  -1.0207300e+02  -1.0046956e+02  -8.3867069e+01  -5.4578697e+01  -1.5976793e+01   3.1046857e+01   8.0819336e+01   1.2872678e+02   1.6804553e+02   1.9165514e+02   1.9553973e+02   1.7501217e+02   1.3463332e+02   8.0838160e+01   1.9320599e+01  -3.9739698e+01  -9.1504520e+01  -1.3424705e+02  -1.6396183e+02  -1.7973399e+02  -1.8381935e+02  -1.7642629e+02  -1.6123099e+02  -1.4069284e+02  -1.2126470e+02  -1.0660597e+02  -1.0290671e+02  -1.1241511e+02  -1.4023430e+02  -1.8441639e+02  -2.4034289e+02  -2.9834062e+02  -3.4645088e+02  -3.7724808e+02  -3.8459722e+02  -3.6824722e+02  -3.3217909e+02  -2.7965996e+02  -2.1499401e+02  -1.4600135e+02  -7.9292304e+01  -2.2432707e+01   2.0890272e+01   5.0591258e+01   6.7703510e+01   7.6621329e+01   7.6036051e+01   6.2575127e+01   3.2192377e+01  -1.3609006e+01  -6.7617437e+01  -1.1370614e+02  -1.3547391e+02  -1.2564913e+02  -8.5204820e+01  -2.8171633e+01   3.0824025e+01   7.5232213e+01   9.9370028e+01   1.0522214e+02   9.8142482e+01   8.3361752e+01   6.3231803e+01   3.8173885e+01   7.3377772e+00  -2.7981728e+01  -6.4091652e+01  -9.5709212e+01  -1.1772140e+02  -1.2479169e+02  -1.1373029e+02  -8.4575751e+01  -3.8374862e+01   1.9311864e+01   7.8114671e+01   1.2767621e+02   1.5848120e+02   1.6858387e+02   1.5813564e+02   1.3164267e+02   9.3917934e+01   4.8733742e+01  -1.7800950e+00  -5.2913017e+01  -9.9223167e+01  -1.3334741e+02  -1.4866547e+02  -1.4373114e+02  -1.2441500e+02  -9.4741145e+01  -6.1442274e+01  -2.5293960e+01   1.3680906e+01   5.5030099e+01   9.3602141e+01   1.2109063e+02   1.2832019e+02   1.1023659e+02   7.0603700e+01   1.9449541e+01  -3.0662164e+01  -6.4434846e+01  -7.5606561e+01  -6.3576346e+01  -3.4803442e+01   5.0764675e+00   4.5435050e+01   8.3112401e+01   1.1509401e+02   1.3931373e+02   1.5347498e+02   1.5677971e+02   1.4846633e+02   1.2808343e+02   9.7460854e+01   5.9380323e+01   1.6987592e+01  -2.9976958e+01  -7.6028120e+01  -1.2075460e+02  -1.5549817e+02  -1.7480472e+02  -1.7358761e+02  -1.4998294e+02  -1.0791703e+02  -6.0444642e+01  -1.5946486e+01   1.6706043e+01   3.2908089e+01   3.4899894e+01   2.3090448e+01   1.0850276e+00  -3.0585378e+01  -6.8993872e+01  -1.0853353e+02  -1.4172101e+02  -1.5997784e+02  -1.6228284e+02  -1.4760617e+02  -1.2206600e+02  -9.2785515e+01  -6.2469661e+01  -3.3758275e+01  -8.4433163e+00   1.0343862e+01   1.5864466e+01   2.3236380e+00  -3.0834960e+01  -7.9933168e+01  -1.3736248e+02  -1.9314996e+02  -2.4071187e+02  -2.7469581e+02  -2.9380001e+02  -2.9946108e+02  -2.9031872e+02  -2.6539573e+02  -2.2496917e+02  -1.7314956e+02  -1.1522372e+02  -5.8848628e+01  -1.3202700e+01   1.6793204e+01   2.7082472e+01   1.9827869e+01  -5.3044291e-01  -2.7519480e+01  -5.5145887e+01  -7.9605365e+01  -9.9092441e+01  -1.1260047e+02  -1.1760366e+02  -1.1152925e+02  -9.3956293e+01  -6.5514959e+01  -2.9500745e+01   7.7432805e+00   4.0591644e+01   6.2944242e+01   7.4966321e+01   7.2658683e+01   5.6179832e+01   2.3874132e+01  -2.3999471e+01  -8.1803614e+01  -1.4125313e+02  -1.8724286e+02  -2.1066244e+02  -2.0408848e+02  -1.7026122e+02  -1.2028074e+02  -6.3495199e+01  -7.0950242e+00   4.5534595e+01   9.4617713e+01   1.4184246e+02   1.8215399e+02   2.1238159e+02   2.3161751e+02   2.4129849e+02   2.5198098e+02   2.7584094e+02   3.1996683e+02   3.8554092e+02   4.6301899e+02   5.4341847e+02   6.1580916e+02   6.7907442e+02   7.3097255e+02   7.7648900e+02   8.1342949e+02   8.3917267e+02   8.4747886e+02   8.3524394e+02   8.0309538e+02   7.5474826e+02   6.9807214e+02   6.3885850e+02   5.8631941e+02   5.4438425e+02   5.1388914e+02   4.9376861e+02   4.7735885e+02   4.5690771e+02   4.2635887e+02   3.7944104e+02   3.1705259e+02   2.4489190e+02   1.6825102e+02   9.6868508e+01   3.5728357e+01  -1.1300123e+01  -4.0066366e+01  -5.2038662e+01  -5.0513155e+01  -3.8103514e+01  -2.0445967e+01  -2.5594751e-02   1.9985752e+01   3.9991144e+01   5.9427041e+01   7.9489449e+01   1.0116224e+02   1.2554179e+02   1.5141200e+02   1.7999067e+02   2.0774481e+02   2.3116425e+02   2.4438798e+02   2.4259866e+02   2.2513170e+02   1.9428419e+02   1.5685000e+02   1.2244424e+02   9.7709090e+01   8.6509328e+01   9.1227549e+01   1.0925560e+02   1.3775299e+02   1.7570681e+02   2.2228710e+02   2.7445224e+02   3.2772453e+02   3.7403351e+02   4.0151466e+02   4.0215699e+02   3.7421273e+02   3.2231372e+02   2.6027851e+02   1.9863454e+02   1.4491862e+02   1.0284774e+02   7.0469538e+01   4.7404632e+01   3.8280059e+01   4.3427763e+01   6.4886874e+01   9.8707207e+01   1.3651192e+02   1.7324250e+02   2.0798476e+02   2.3976473e+02   2.6520734e+02   2.7996986e+02   2.7489273e+02   2.4684878e+02   2.0131238e+02   1.5170832e+02   1.1262974e+02   9.7032581e+01   1.0451651e+02   1.2779169e+02   1.5640456e+02   1.8576147e+02   2.1744823e+02   2.5380396e+02   2.9667310e+02   3.3823458e+02   3.6679721e+02   3.7145354e+02   3.4650352e+02   2.9658965e+02   2.3352375e+02   1.6982671e+02   1.1504108e+02   7.2906456e+01   4.2506411e+01   2.1499361e+01   1.1534674e+01   1.3930743e+01   3.4657006e+01   7.1621124e+01   1.2322258e+02   1.7809769e+02   2.2695694e+02   2.6140217e+02   2.7961552e+02   2.8482869e+02   2.7951135e+02   2.6625549e+02   2.4437330e+02   2.1326465e+02   1.7664151e+02   1.4171522e+02   1.1745767e+02   1.1203724e+02   1.3050655e+02   1.6578451e+02   2.0893616e+02   2.4871205e+02   2.7727467e+02   2.9301338e+02   2.9533698e+02   2.8833625e+02   2.7222528e+02   2.4550048e+02   2.0679381e+02   1.5743755e+02   1.0279698e+02   5.1458676e+01   1.0381564e+01  -1.4876512e+01  -2.1754020e+01  -1.2023530e+01   1.5173313e+01   5.8598042e+01   1.1245938e+02   1.7015669e+02   2.2312461e+02   2.5966694e+02   2.7767005e+02   2.8010155e+02   2.7122984e+02   2.5553703e+02   2.3433893e+02   2.0416522e+02   1.6398463e+02   1.1838025e+02   7.7786861e+01   5.4893082e+01   5.5288659e+01   7.6404337e+01   1.0775120e+02   1.3842652e+02   1.6181651e+02   1.7439968e+02   1.8054117e+02   1.7716882e+02   1.6423879e+02   1.3692516e+02   9.4506826e+01   3.9964534e+01  -1.4659068e+01  -6.0051916e+01  -8.8471475e+01  -9.6518078e+01  -8.7738636e+01  -6.3978974e+01  -2.9436861e+01   1.6593042e+01   7.1249318e+01   1.3184009e+02   1.8868835e+02   2.3197523e+02   2.5446996e+02   2.5005052e+02   2.2194711e+02   1.7767718e+02   1.2868235e+02   8.1716694e+01   4.3069554e+01   1.3727044e+01  -7.4151188e+00  -1.8182514e+01  -1.9513177e+01  -1.0557574e+01   9.5240808e+00   3.6038018e+01   6.4440826e+01   8.8136770e+01   1.0227954e+02   1.0446859e+02   9.2244683e+01   6.5316671e+01   2.6487703e+01  -2.0710136e+01  -6.7623997e+01  -1.0524980e+02  -1.2705922e+02  -1.2877224e+02  -1.1097036e+02  -7.6466369e+01  -3.0379513e+01   2.3096431e+01   7.8202809e+01   1.3233750e+02   1.7989302e+02   2.1510093e+02   2.3277091e+02   2.3182644e+02   2.1156646e+02   1.7361834e+02   1.2358904e+02   6.6460760e+01   1.0812008e+01  -3.6032580e+01  -7.0810680e+01  -8.7981968e+01  -9.0152728e+01  -7.6209820e+01  -5.1148817e+01  -1.7620905e+01   2.1738116e+01   6.0104898e+01   9.0283149e+01   1.0542490e+02   1.0156068e+02   7.9866889e+01   4.6634236e+01   8.9417998e+00  -2.7918679e+01  -5.9189853e+01  -8.2465441e+01  -9.4464988e+01  -8.8660753e+01  -6.1670568e+01  -1.2361491e+01   5.1351546e+01   1.1598731e+02   1.6919709e+02   2.0458832e+02   2.2156362e+02   2.2406331e+02   2.1611203e+02   1.9509608e+02   1.5773378e+02   1.0474195e+02   4.0241724e+01  -2.5017795e+01  -8.0515841e+01  -1.1778315e+02  -1.3408356e+02  -1.3286467e+02  -1.1691890e+02  -9.0235616e+01  -5.2565423e+01  -9.7570228e+00   3.4043911e+01   7.2225119e+01   9.6455952e+01   1.0525315e+02   9.8288573e+01   7.6398801e+01   4.5296788e+01   1.1025687e+01  -1.7769604e+01  -3.2653483e+01  -2.9182145e+01  -8.5503066e+00   2.3986741e+01   5.8974193e+01   9.2922314e+01   1.2575339e+02   1.6047210e+02   1.9896962e+02   2.3785371e+02   2.6619264e+02   2.7307273e+02   2.4989286e+02   1.9835528e+02   1.2915190e+02   5.8386184e+01  -1.9367954e-01  -4.1049539e+01  -6.2683093e+01  -6.8331492e+01  -6.1436869e+01  -4.2828263e+01  -1.0592622e+01   3.4347004e+01   9.0889492e+01   1.5056118e+02   2.0236178e+02   2.3753771e+02   2.4918039e+02   2.3957075e+02   2.1422542e+02   1.8264063e+02   1.4977009e+02   1.1930942e+02   9.4884973e+01   7.7257941e+01   7.2652414e+01   8.6298558e+01   1.1925355e+02   1.6952484e+02   2.2547915e+02   2.7448238e+02   3.0368333e+02   3.1083535e+02   2.9804350e+02   2.7333576e+02   2.4397917e+02   2.1049662e+02   1.6938002e+02   1.1953615e+02   6.4537384e+01   1.3776527e+01  -2.1362595e+01  -3.1208423e+01  -1.4285136e+01   2.3488250e+01   7.5909984e+01   1.3490419e+02   1.9717197e+02   2.5499875e+02   3.0511129e+02   3.3947059e+02   3.5389680e+02   3.4744383e+02   3.2647563e+02   2.9543586e+02   2.6134393e+02   2.2808652e+02   1.9760151e+02   1.7306446e+02   1.5718797e+02   1.5272787e+02   1.6226269e+02   1.8427506e+02   2.1452360e+02   2.4865344e+02   2.7896224e+02   3.0121657e+02   3.1140714e+02   3.0533927e+02   2.8197730e+02   2.4249454e+02   1.9202036e+02   1.3911669e+02   9.2052959e+01   5.8976160e+01   4.4086771e+01   5.1931403e+01   7.8907192e+01   1.2004573e+02   1.7310641e+02   2.3296805e+02   2.9526829e+02   3.5820662e+02   4.1340510e+02   4.5471393e+02   4.7485508e+02   4.7081972e+02   4.4196799e+02   3.9681882e+02   3.4455917e+02   2.9133955e+02   2.4445058e+02   2.0649111e+02   1.7963914e+02   1.6912246e+02   1.7895881e+02   2.0999894e+02   2.5726482e+02   3.1053586e+02   3.5610204e+02   3.8658100e+02   3.9668694e+02   3.9084657e+02   3.7357737e+02   3.4857644e+02   3.1750679e+02   2.8250935e+02   2.4550598e+02   2.1238735e+02   1.9119544e+02   1.8941149e+02   2.0644640e+02   2.4140405e+02   2.8915075e+02   3.4168391e+02   3.9375247e+02   4.3864760e+02   4.6905980e+02   4.8188879e+02   4.7289910e+02   4.4513452e+02   4.0103622e+02   3.4624958e+02   2.8714522e+02   2.2611844e+02   1.6576005e+02   1.1200910e+02   7.1399270e+01   4.9498809e+01   4.6616878e+01   5.8814082e+01   7.8213394e+01   9.7567832e+01   1.1300670e+02   1.2685844e+02   1.3943817e+02   1.4969325e+02   1.5061941e+02   1.3639146e+02   1.0119098e+02   5.0754993e+01   7.0681969e-01  -3.5239596e+01  -4.6093145e+01  -3.3305970e+01  -4.3017290e+00   2.8261047e+01   5.7528177e+01   8.5788138e+01   1.1606575e+02   1.5289346e+02   1.9115744e+02   2.2290639e+02   2.3601437e+02   2.2260906e+02   1.8120741e+02   1.1853967e+02   4.6084416e+01  -2.3624555e+01  -8.2827993e+01  -1.2539806e+02  -1.4660939e+02  -1.4672292e+02  -1.3030599e+02  -1.0224771e+02  -6.9469284e+01  -3.7369617e+01  -9.0817263e+00   1.6359361e+01   4.0825120e+01   6.2769978e+01   7.7685428e+01   7.7271619e+01   5.8304796e+01   1.8219612e+01  -3.4535373e+01  -8.5280892e+01  -1.1892142e+02  -1.2967946e+02  -1.1664879e+02  -8.6090779e+01  -4.7432222e+01  -7.9636773e+00   3.1722152e+01   7.0476968e+01   1.0542857e+02   1.3178562e+02   1.3850674e+02   1.1874325e+02   7.0994367e+01   9.5260909e-01  -7.7941937e+01  -1.5718065e+02  -2.2500923e+02  -2.8028651e+02  -3.1626507e+02  -3.3119153e+02  -3.1964653e+02  -2.7758054e+02  -2.0604144e+02  -1.1163040e+02   2.4029261e-01   1.1818846e+02   2.3769028e+02   3.4978496e+02   4.4856337e+02   5.2337619e+02   5.6773606e+02   5.7892846e+02   5.6038611e+02   5.2391248e+02   4.8386078e+02   4.4838042e+02   4.1983344e+02   3.9646056e+02   3.7734215e+02   3.6365975e+02   3.6122273e+02   3.7318883e+02   3.9388092e+02   4.1058907e+02   4.0324856e+02   3.5890098e+02   2.7687447e+02   1.6365652e+02   3.2474694e+01  -1.0436053e+02  -2.4026438e+02  -3.6923060e+02  -4.8561544e+02  -5.7474835e+02  -6.2128804e+02  -6.1027602e+02  -5.4088035e+02  -4.2286284e+02  -2.7884056e+02  -1.3243903e+02  -4.4495538e+00   8.9898285e+01   1.4745323e+02   1.7338071e+02   1.7609295e+02   1.6688231e+02   1.5130865e+02   1.3242456e+02   1.1194369e+02   9.0464447e+01   7.0853795e+01   6.0873882e+01   6.8100979e+01   9.6146917e+01   1.3615196e+02   1.7648172e+02   2.0353240e+02   2.0753431e+02   1.9024392e+02   1.5842888e+02   1.2407953e+02   9.1315965e+01   6.3002312e+01   3.6117997e+01   9.9699168e+00  -1.1649616e+01  -2.4246145e+01  -2.0242181e+01   6.5156538e-01   3.7363986e+01   8.5701123e+01   1.3986343e+02   1.9817509e+02   2.5792920e+02   3.1423776e+02   3.5877406e+02   3.8030997e+02   3.7397766e+02   3.3722195e+02   2.8045117e+02   2.1843388e+02   1.6452315e+02   1.2881271e+02   1.1433768e+02   1.1742676e+02   1.3229146e+02   1.5290623e+02   1.8019377e+02   2.1148865e+02   2.4621507e+02   2.8068568e+02   3.0891205e+02   3.2431623e+02   3.2224604e+02   3.0322350e+02   2.7289197e+02   2.3666830e+02   2.0114664e+02   1.7433396e+02   1.5782032e+02   1.5499679e+02   1.6542661e+02   1.9245631e+02   2.3312008e+02   2.8735305e+02   3.5248615e+02   4.2095851e+02   4.8415382e+02   5.3424982e+02   5.6196857e+02   5.6712818e+02   5.5192237e+02   5.1989131e+02   4.7858745e+02   4.3098121e+02   3.8268548e+02   3.3710203e+02   3.0060322e+02   2.7985697e+02   2.7938394e+02   2.9740434e+02   3.2999297e+02   3.7051952e+02   4.1231316e+02   4.5046047e+02   4.8362793e+02   5.0879743e+02   5.2181538e+02   5.1868120e+02   4.9653641e+02   4.6035648e+02   4.1838721e+02   3.8140296e+02   3.5788752e+02   3.5524975e+02   3.7218085e+02   4.0524207e+02   4.5173996e+02   5.0590803e+02   5.6137210e+02   6.1483887e+02   6.5891607e+02   6.9095550e+02   7.0780605e+02   7.0637596e+02   6.8792859e+02   6.5207129e+02   6.0043800e+02   5.4010681e+02   4.7682911e+02   4.2217205e+02   3.8468734e+02   3.6821609e+02   3.7442124e+02   3.9760783e+02   4.3385432e+02   4.7643495e+02   5.1847574e+02   5.5475509e+02   5.8454078e+02   6.0435112e+02   6.1453825e+02   6.1361616e+02   6.0229028e+02   5.7818625e+02   5.4431610e+02   5.0535512e+02   4.6882882e+02   4.4432107e+02   4.3981187e+02   4.5923546e+02   4.9831988e+02   5.5073109e+02   6.0550303e+02   6.5469690e+02   6.9220122e+02   7.1356510e+02   7.1675252e+02   7.0171522e+02   6.6870602e+02   6.1928921e+02   5.6004447e+02   4.9600230e+02   4.3388479e+02   3.8225161e+02   3.4366374e+02   3.2397592e+02   3.2185069e+02   3.3955861e+02   3.7208981e+02   4.1656219e+02   4.6587052e+02   5.1449004e+02   5.5532708e+02   5.8350358e+02   5.9897147e+02   5.9987597e+02   5.8662104e+02   5.6163018e+02   5.2383646e+02   4.7597276e+02   4.2575912e+02   3.8209804e+02   3.5538750e+02   3.5104476e+02   3.6930615e+02   4.0132975e+02   4.3758750e+02   4.7049337e+02   4.9718254e+02   5.1733575e+02   5.3093650e+02   5.3185789e+02   5.1019835e+02   4.6031914e+02   3.8357648e+02   2.9378237e+02   2.0946431e+02   1.4802225e+02   1.1989417e+02   1.2184173e+02   1.4445114e+02   1.7791611e+02   2.1613192e+02   2.5808892e+02   3.0651309e+02   3.5866933e+02   4.1122116e+02   4.5203288e+02   4.7180901e+02   4.6248656e+02   4.2632986e+02   3.7371691e+02   3.1764775e+02   2.7104254e+02   2.4092468e+02   2.2759975e+02   2.2494094e+02   2.2687702e+02   2.2915123e+02   2.3438288e+02   2.4342187e+02   2.5794776e+02   2.7323072e+02   2.8395055e+02   2.8396190e+02   2.6890047e+02   2.3854716e+02   1.9789917e+02   1.4893682e+02   9.8116126e+01   5.2654189e+01   1.6702362e+01  -5.4816908e+00  -1.0251999e+01  -8.5597200e-02   2.3182892e+01   5.5435545e+01   9.3646270e+01   1.3750800e+02   1.8122941e+02   2.1939677e+02   2.4678664e+02   2.5702257e+02   2.4998932e+02   2.2595047e+02   1.9135510e+02   1.4836011e+02   1.0113346e+02   5.0031557e+01   7.6144944e-01  -4.2360707e+01  -6.9955931e+01  -7.8861875e+01  -6.6109052e+01  -3.5599297e+01   4.4686981e+00   4.4347456e+01   7.4559899e+01   8.7677746e+01   8.0952870e+01   5.2715241e+01   9.4831090e+00  -4.2230574e+01  -9.3389529e+01  -1.3712029e+02  -1.6752039e+02  -1.8447945e+02  -1.8640144e+02  -1.7273009e+02  -1.4220480e+02  -9.3811040e+01  -2.8429822e+01   4.3768696e+01   1.1210824e+02   1.6326243e+02   1.8707071e+02   1.8120581e+02   1.5060423e+02   1.0560243e+02   5.4760821e+01   5.3991603e+00  -4.1094995e+01  -8.5092611e+01  -1.2457470e+02  -1.5689634e+02  -1.7636220e+02  -1.7853841e+02  -1.6126075e+02  -1.2734025e+02  -8.2007377e+01  -3.3171556e+01   9.4031482e+00   3.8894309e+01   4.9081345e+01   3.7780690e+01   8.9972755e+00  -3.1227770e+01  -7.4251913e+01  -1.1348917e+02  -1.4620136e+02  -1.7031475e+02  -1.8215051e+02  -1.7796913e+02  -1.5225337e+02  -1.0469006e+02  -4.0851007e+01   2.6385656e+01   8.4597510e+01   1.2366192e+02   1.4256962e+02   1.4309863e+02   1.3025832e+02   1.0744322e+02   7.4275353e+01   2.7154854e+01  -2.9421913e+01  -8.8687493e+01  -1.4146239e+02  -1.7793480e+02  -1.9325843e+02  -1.8688985e+02  -1.6362203e+02  -1.2831108e+02  -8.5334271e+01  -3.9853178e+01   1.0187013e+00   3.6031828e+01   6.1490386e+01   7.6724305e+01   8.0280802e+01   7.1811269e+01   4.9670137e+01   1.6281607e+01  -2.3638977e+01  -5.6902282e+01  -7.2589289e+01  -6.2620489e+01  -2.9072056e+01   1.8805184e+01   6.8867591e+01   1.1162433e+02   1.4197388e+02   1.6303259e+02   1.7594355e+02   1.8155652e+02   1.7488646e+02   1.5228776e+02   1.1131885e+02   5.7313726e+01  -1.2843249e+00  -5.3739121e+01  -9.2880583e+01  -1.1489265e+02  -1.2092603e+02  -1.0945480e+02  -8.2330176e+01  -4.1524792e+01   1.2397914e+01   7.5017858e+01   1.3989820e+02   2.0041896e+02   2.4849359e+02   2.7907393e+02   2.8637737e+02   2.6980784e+02   2.3558309e+02   1.9312030e+02   1.5526462e+02   1.3246584e+02   1.2901548e+02   1.4344796e+02   1.6918718e+02   1.9948645e+02   2.3367011e+02   2.6964377e+02   3.0860424e+02   3.4685269e+02   3.7960052e+02   3.9765804e+02   3.9391165e+02   3.6652345e+02   3.1882449e+02   2.5891388e+02   1.9801582e+02   1.4467925e+02   1.0892615e+02   9.3461681e+01   9.9051629e+01   1.2115025e+02   1.5582859e+02   1.9901333e+02   2.4900484e+02   3.0420606e+02   3.5996572e+02   4.0842463e+02   4.4325303e+02   4.5618204e+02   4.4626011e+02   4.1680139e+02   3.7303540e+02   3.2150624e+02   2.6530349e+02   2.0622925e+02   1.5201357e+02   1.1268389e+02   9.6172935e+01   1.0921728e+02   1.4555901e+02   1.9242251e+02   2.3420033e+02   2.5825464e+02   2.6172421e+02   2.4822687e+02   2.2536081e+02   1.9393576e+02   1.5690132e+02   1.1198034e+02   6.2055661e+01   1.5391581e+01  -1.7206057e+01  -2.9178110e+01  -1.7842577e+01   1.1218047e+01   4.9065845e+01   9.0626474e+01   1.3119022e+02   1.7312980e+02   2.1674039e+02   2.5809116e+02   2.9177600e+02   3.1046436e+02   3.1017998e+02   2.8727124e+02   2.4707855e+02   1.9534370e+02   1.4044112e+02   8.9534109e+01   4.9768934e+01   2.4613954e+01   1.6431497e+01   2.4338380e+01   4.7372071e+01   7.8938082e+01   1.1247688e+02   1.4425836e+02   1.6919546e+02   1.8256571e+02   1.8054251e+02   1.6146331e+02   1.2679785e+02   8.1820208e+01   3.4028402e+01  -3.6099839e+00  -2.4484587e+01  -2.4128900e+01  -4.8602587e+00   2.7814861e+01   6.9086124e+01   1.1303260e+02   1.5910030e+02   2.0280139e+02   2.4054349e+02   2.6547918e+02   2.7326311e+02   2.6161625e+02   2.3262203e+02   1.8971532e+02   1.3836546e+02   8.2495705e+01   2.5716151e+01  -2.8527914e+01  -7.3779324e+01  -1.0425528e+02  -1.1430606e+02  -1.0358682e+02  -7.2921089e+01  -2.8876598e+01   2.4888095e+01   8.8416559e+01   1.6227924e+02   2.4831834e+02   3.4321204e+02   4.3878217e+02   5.2300420e+02   5.8671872e+02   6.2608413e+02   6.4284519e+02   6.4651744e+02   6.4659846e+02   6.4991424e+02   6.6019023e+02   6.7390661e+02   6.8945953e+02   7.0460771e+02   7.2014651e+02   7.3571979e+02   7.5166160e+02   7.6075489e+02   7.5480584e+02   7.2495603e+02   6.6268993e+02   5.6653573e+02   4.4349805e+02   3.0229728e+02   1.5551581e+02   1.2763697e+01  -1.1902581e+02  -2.3407861e+02  -3.2797688e+02  -3.9154615e+02  -4.1644912e+02  -3.9854167e+02  -3.3807825e+02  -2.4687384e+02  -1.4753481e+02  -6.0861380e+01  -6.5013515e+00   1.1099822e+01  -2.5528548e+00  -3.1521823e+01  -6.0149618e+01  -7.5868305e+01  -7.7995211e+01  -7.0405829e+01  -5.6992030e+01  -3.8842452e+01  -1.3119577e+01   2.3350896e+01   6.8723827e+01   1.1492535e+02   1.4948409e+02   1.6129060e+02   1.4518205e+02   1.0627228e+02   5.2981114e+01  -6.2424299e+00  -6.5468070e+01  -1.2203155e+02  -1.7038295e+02  -2.0892416e+02  -2.3072445e+02  -2.3001979e+02  -2.0842999e+02  -1.6886498e+02  -1.1713357e+02  -6.2307171e+01  -9.9234445e+00   3.5863773e+01   7.3075329e+01   9.8533551e+01   1.0824262e+02   9.9473253e+01   7.2542334e+01   3.0319001e+01  -2.0474385e+01  -6.9070763e+01  -1.0346622e+02  -1.1611730e+02  -1.0143299e+02  -6.7994994e+01  -2.3475826e+01   1.8733390e+01   5.1135473e+01   7.1896486e+01   8.3667365e+01   8.8345954e+01   8.6675447e+01   7.3596836e+01   4.4306246e+01   7.3182174e-03  -5.3610093e+01  -1.0609651e+02  -1.4907877e+02  -1.7609406e+02  -1.8631112e+02  -1.8204207e+02  -1.6297627e+02  -1.2710476e+02  -7.5344547e+01  -1.1912196e+01   5.5470581e+01   1.1443417e+02   1.5576800e+02   1.7307063e+02   1.6715771e+02   1.4417500e+02   1.1240311e+02   7.8781947e+01   4.6220065e+01   1.6782908e+01  -1.0130449e+01  -3.0510977e+01  -4.3266985e+01  -4.3484235e+01  -2.9385220e+01  -1.9939431e+00   3.3447146e+01   6.8228094e+01   9.3987520e+01   1.0648221e+02   1.0220478e+02   8.1764709e+01   4.8979690e+01   7.6633953e+00  -3.6862914e+01  -7.9470495e+01  -1.1204133e+02  -1.3129504e+02  -1.3251278e+02  -1.1406077e+02  -7.7641904e+01  -2.3240381e+01   4.2234586e+01   1.1356024e+02   1.7798635e+02   2.2909278e+02   2.5760486e+02   2.6405944e+02   2.4923338e+02   2.1927882e+02   1.7954804e+02   1.3513233e+02   8.8177200e+01   4.3066133e+01   4.5817970e+00  -2.1843100e+01  -3.2685997e+01  -2.5631755e+01  -3.5689244e+00   2.8712807e+01   6.6081249e+01   1.0279939e+02   1.3234110e+02   1.5317365e+02   1.6339994e+02   1.6417329e+02   1.5282767e+02   1.3070558e+02   9.7706127e+01   5.5614252e+01   1.3301813e+01  -1.9091590e+01  -2.8886518e+01  -1.1401323e+01   3.2774832e+01   9.4811749e+01   1.6196911e+02   2.2418578e+02   2.7385035e+02   3.0865120e+02   3.2739334e+02   3.3067376e+02   3.2032539e+02   2.9657052e+02   2.5986341e+02   2.1244283e+02   1.5765387e+02   9.7129285e+01   3.7938929e+01  -1.3180328e+01  -4.8412334e+01  -6.0190201e+01  -5.0223669e+01  -2.2223203e+01   1.4639824e+01   4.8462958e+01   7.3433030e+01   8.6625550e+01   8.7675210e+01   7.8227053e+01   6.0107722e+01   3.3194254e+01  -1.0010511e+00  -3.8972906e+01  -7.6004688e+01  -1.0398271e+02  -1.1613207e+02  -1.0857302e+02  -8.2621406e+01  -4.0790554e+01   8.5069839e+00   5.7519793e+01   9.7905772e+01   1.2856886e+02   1.4847222e+02   1.5831927e+02   1.5601061e+02   1.4281520e+02   1.1823161e+02   8.3556898e+01   4.7219347e+01   1.4962808e+01  -5.0094991e+00  -9.8189638e+00   1.4801646e+00   2.7547908e+01   6.9706831e+01   1.2619671e+02   1.9370036e+02   2.6706920e+02   3.3415038e+02   3.8260479e+02   4.0560605e+02   4.0332742e+02   3.8215247e+02   3.5158226e+02   3.1985367e+02   2.8932155e+02   2.6069009e+02   2.3419832e+02   2.1387113e+02   2.0493825e+02   2.1250084e+02   2.3849181e+02   2.7993624e+02   3.2547774e+02   3.6510028e+02   3.9194841e+02   4.0013510e+02   3.8842821e+02   3.5772166e+02   3.1022699e+02   2.4935773e+02   1.8132002e+02   1.1346284e+02   5.5472763e+01   1.1519638e+01  -1.3533701e+01  -1.6753375e+01   2.4944175e+00   4.2471862e+01   9.9306763e+01   1.6450635e+02   2.2667908e+02   2.7436811e+02   2.9888536e+02   2.9903572e+02   2.7863540e+02   2.4475708e+02   2.0567034e+02   1.6348796e+02   1.2056725e+02   7.5748782e+01   3.3536473e+01   2.3304639e+00  -1.2183109e+01  -4.4024760e+00   2.5109121e+01   6.7843491e+01   1.1283833e+02   1.4837197e+02   1.6876772e+02   1.7419810e+02   1.6437946e+02   1.4506185e+02   1.1624612e+02   7.7097619e+01   2.8565690e+01  -2.6241474e+01  -8.0844387e+01  -1.2623774e+02  -1.5668132e+02  -1.6833057e+02  -1.6062256e+02  -1.3436531e+02  -9.2517881e+01  -3.6689909e+01   2.6573332e+01   8.7626141e+01   1.3456729e+02   1.5998321e+02   1.5849142e+02   1.3501349e+02   9.8742512e+01   5.8811269e+01   1.9707321e+01  -1.7485287e+01  -5.3915006e+01  -8.6750581e+01  -1.1082197e+02  -1.1902848e+02  -1.0646016e+02  -7.8217154e+01  -4.1952442e+01  -9.2014167e+00   1.2410159e+01   2.0971230e+01   1.8993479e+01   7.9252889e+00  -9.5990970e+00  -3.5810510e+01  -6.9150114e+01  -1.0986409e+02  -1.4976811e+02  -1.8307992e+02  -2.0120735e+02  -2.0038620e+02  -1.8308095e+02  -1.5209346e+02  -1.1436367e+02  -7.3487280e+01  -3.1013288e+01   1.0386063e+01   4.6763720e+01   7.3652458e+01   8.5626186e+01   7.8594173e+01   5.2789874e+01   1.3456838e+01  -3.2725599e+01  -7.7399397e+01  -1.1336633e+02  -1.3739592e+02  -1.4789513e+02  -1.4635145e+02  -1.3549128e+02  -1.1913425e+02  -1.0076493e+02  -8.3881565e+01  -6.9211162e+01  -5.5898287e+01  -4.5778307e+01  -3.7833808e+01  -3.9908877e+01  -5.5719644e+01  -8.6160735e+01  -1.2886621e+02  -1.7194918e+02  -2.0582036e+02  -2.1797404e+02  -2.0763491e+02  -1.7717679e+02  -1.3525543e+02  -8.9635476e+01  -4.8733079e+01  -1.2933246e+01   1.7227647e+01   3.8906445e+01   5.0712699e+01   5.2282087e+01   3.9587253e+01   1.2944940e+01  -2.8282020e+01  -8.3248196e+01  -1.4737962e+02  -2.1321870e+02  -2.6724779e+02  -2.9658270e+02  -2.9244501e+02  -2.5935161e+02  -2.0999795e+02  -1.6185269e+02  -1.2751990e+02  -1.0795608e+02  -9.7648467e+01  -8.6865755e+01  -7.2082406e+01  -6.1653787e+01  -6.4785442e+01  -8.8800091e+01  -1.3066529e+02  -1.7770976e+02  -2.1543050e+02  -2.3128018e+02  -2.2532755e+02  -2.0169950e+02  -1.6674408e+02  -1.2489045e+02  -7.7223110e+01  -2.3826063e+01   2.9015888e+01   7.3652592e+01   1.0182857e+02   1.0526553e+02   8.4988950e+01   4.6353589e+01  -5.2363217e+00  -5.9876051e+01  -1.1290681e+02  -1.5776080e+02  -1.9179389e+02  -2.1299561e+02  -2.2148347e+02  -2.1671667e+02  -1.9840236e+02  -1.6610815e+02  -1.2363411e+02  -7.4228842e+01  -2.7755576e+01   5.0804312e+00   1.9339771e+01   1.2211251e+01  -9.9182622e+00  -3.9694735e+01  -7.0295420e+01  -9.8126131e+01  -1.2262162e+02  -1.4403958e+02  -1.6013987e+02  -1.6665588e+02  -1.6049355e+02  -1.3862986e+02  -1.0572384e+02  -6.8491714e+01  -3.4930187e+01  -1.1492553e+01  -5.3290450e+00  -1.4694366e+01  -4.2603858e+01  -8.5785370e+01  -1.4193589e+02  -2.0824991e+02  -2.7715075e+02  -3.3812855e+02  -3.8357437e+02  -4.0749970e+02  -4.0704626e+02  -3.8371881e+02  -3.4231015e+02  -2.9052883e+02  -2.3437946e+02  -1.7937829e+02  -1.3170864e+02  -9.7428261e+01  -7.9833458e+01  -8.0063907e+01  -9.6999040e+01  -1.2445796e+02  -1.5567422e+02  -1.8397952e+02  -2.0360283e+02  -2.1347631e+02  -2.1693802e+02  -2.1623662e+02  -2.1176965e+02  -2.0102317e+02  -1.8322141e+02  -1.5873385e+02  -1.3132064e+02  -1.0931887e+02  -9.9880690e+01  -1.0736738e+02  -1.3098270e+02  -1.6669688e+02  -2.0947320e+02  -2.5476877e+02  -2.9624358e+02  -3.3158456e+02  -3.5333444e+02  -3.5861543e+02  -3.4465062e+02  -3.1101305e+02  -2.6256872e+02  -2.0612036e+02  -1.4979847e+02  -9.7280249e+01  -5.4939551e+01  -2.3039903e+01  -4.0773658e+00   1.6408549e+00  -3.8726931e+00  -2.2461234e+01  -5.3280205e+01  -9.3472228e+01  -1.3796894e+02  -1.7731134e+02  -2.0137828e+02  -2.0492555e+02  -1.8786361e+02  -1.5823763e+02  -1.2391387e+02  -9.5016130e+01  -7.4189655e+01  -6.0793469e+01  -5.0131526e+01  -4.0827932e+01  -3.3431858e+01  -2.9307103e+01  -2.7822492e+01  -2.1818731e+01  -1.2900045e+00   4.4810929e+01   1.1875207e+02   2.2029683e+02   3.3617157e+02   4.5379943e+02   5.6133674e+02   6.5300928e+02   7.2670471e+02   7.8474398e+02   8.2772949e+02   8.4935882e+02   8.4609607e+02   8.1261253e+02   7.5293883e+02   6.7630916e+02   5.9771913e+02   5.3125710e+02   4.8429869e+02   4.5567207e+02   4.3390546e+02   4.0865657e+02   3.6839902e+02   3.0840611e+02   2.3203228e+02   1.4225216e+02   4.7383256e+01  -4.9107104e+01  -1.4082039e+02  -2.2077774e+02  -2.7899150e+02  -3.0931581e+02  -3.0759693e+02  -2.7710318e+02  -2.2817641e+02  -1.7501705e+02  -1.2749588e+02  -9.0882772e+01  -6.0392449e+01  -2.9472522e+01   1.0207092e+01   6.1063749e+01   1.2117124e+02   1.8101377e+02   2.3232540e+02   2.6790344e+02   2.8328767e+02   2.7821520e+02   2.5378998e+02   2.1434450e+02   1.6401171e+02   1.0806392e+02   5.5106310e+01   1.2232009e+01  -1.4749693e+01  -2.1910023e+01  -1.0544214e+01   1.4782238e+01   4.8488869e+01   8.2500957e+01   1.1396415e+02   1.4105547e+02   1.6478104e+02   1.8265260e+02   1.9215181e+02   1.8692018e+02   1.6564969e+02   1.3068971e+02   9.0424272e+01   5.6504884e+01   3.7043693e+01   3.7877414e+01   5.6002692e+01   8.8261001e+01   1.3031696e+02   1.7693478e+02   2.2751742e+02   2.7583678e+02   3.1285811e+02   3.3054851e+02   3.2256057e+02   2.8869942e+02   2.3710960e+02   1.8015556e+02   1.2701047e+02   8.1007114e+01   4.0836083e+01   3.6970951e+00  -2.7484658e+01  -4.8674088e+01  -4.8092461e+01  -2.3287496e+01   2.5101548e+01   8.4850390e+01   1.4285980e+02   1.8797290e+02   2.1679042e+02   2.3137447e+02   2.3774760e+02   2.3712089e+02   2.2682253e+02   2.0693793e+02   1.7571140e+02   1.3879236e+02   1.0542861e+02   8.4717325e+01   8.3016170e+01   1.0059500e+02   1.3757644e+02   1.8717396e+02   2.4219626e+02   2.9475018e+02   3.3504765e+02   3.5520765e+02   3.5194446e+02   3.2904842e+02   2.8959306e+02   2.4283916e+02   1.9084624e+02   1.3884243e+02   8.7434585e+01   4.0763467e+01   6.7152778e+00  -9.7057951e+00  -4.7610529e+00   2.0934099e+01   6.0627594e+01   1.1092533e+02   1.6549646e+02   2.1989574e+02   2.6839339e+02   3.0670269e+02   3.2650901e+02   3.2473142e+02   3.0248368e+02   2.6574155e+02   2.2076350e+02   1.7734432e+02   1.4100329e+02   1.1521768e+02   1.0280529e+02   1.0753962e+02   1.2904961e+02   1.6601724e+02   2.0964594e+02   2.5133600e+02   2.8047490e+02   2.9323508e+02   2.8626981e+02   2.6521236e+02   2.3390889e+02   1.9635213e+02   1.5532287e+02   1.1378561e+02   7.5117909e+01   4.4275858e+01   2.2006802e+01   1.3214600e+01   1.7562298e+01   3.8366329e+01   7.7796599e+01   1.3535683e+02   2.0558218e+02   2.7786170e+02   3.3727752e+02   3.6734950e+02   3.6358798e+02   3.3078166e+02   2.8098430e+02   2.3020366e+02   1.8783558e+02   1.5492092e+02   1.2732556e+02   1.0195392e+02   8.1101736e+01   7.0034217e+01   7.6845700e+01   1.0361817e+02   1.4085606e+02   1.7913739e+02   2.0589142e+02   2.1519673e+02   2.0749031e+02   1.8809059e+02   1.6146223e+02   1.3018581e+02   9.4635151e+01   5.3404490e+01   1.0562100e+01  -2.4169772e+01  -4.3198495e+01  -3.9701870e+01  -1.5039579e+01   2.4121593e+01   6.8987059e+01   1.1409590e+02   1.6000453e+02   2.0810248e+02   2.5545306e+02   2.9554773e+02   3.1487477e+02   3.0122727e+02   2.5371042e+02   1.8344763e+02   1.0802560e+02   4.6752946e+01   8.8314608e+00  -7.4491445e+00  -1.0386117e+01  -7.3189703e+00  -8.0587821e-01   1.0500653e+01   3.3260225e+01   6.5076169e+01   1.0026611e+02   1.2866573e+02   1.4235631e+02   1.3821686e+02   1.1922575e+02   9.1470496e+01   5.9864290e+01   2.5607445e+01  -1.0533295e+01  -4.3029940e+01  -6.5373718e+01  -6.6724228e+01  -4.1338648e+01   7.2788165e+00   6.8529297e+01   1.2615488e+02   1.7190105e+02   2.0231843e+02   2.2459790e+02   2.4432800e+02   2.6007401e+02   2.6070153e+02   2.3640125e+02   1.8041127e+02   1.0147366e+02   1.7096924e+01  -5.2277645e+01  -9.3095486e+01  -1.0438589e+02  -9.5244950e+01  -7.7041681e+01  -5.6321558e+01  -3.1422509e+01  -8.5669123e-01   3.7457757e+01   7.5010352e+01   1.0444776e+02   1.1415755e+02   1.0160836e+02   7.0400775e+01   2.9023149e+01  -1.2653651e+01  -4.9073302e+01  -7.5787312e+01  -9.1236335e+01  -9.4412446e+01  -8.3311486e+01  -5.8112850e+01  -1.9060628e+01   2.7939320e+01   7.7953850e+01   1.2180399e+02   1.5288936e+02   1.6694484e+02   1.6162772e+02   1.3685597e+02   9.3851240e+01   3.5879557e+01  -2.9277011e+01  -9.4048676e+01  -1.4491008e+02  -1.7520700e+02  -1.8286811e+02  -1.7190842e+02  -1.5165835e+02  -1.2868938e+02  -1.0544738e+02  -7.6643798e+01  -4.0487175e+01   4.1422160e+00   4.8463657e+01   8.0410773e+01   9.2008162e+01   8.0460626e+01   5.2944880e+01   2.2133411e+01  -3.4834942e+00  -1.8384244e+01  -2.2803566e+01  -1.5413417e+01   2.1955948e+00   3.2298653e+01   7.1116619e+01   1.1318177e+02   1.4994028e+02   1.7451056e+02   1.8449505e+02   1.8273550e+02   1.7090905e+02   1.4988373e+02   1.1878383e+02   7.7754350e+01   2.8454368e+01  -1.9654772e+01  -6.0132978e+01  -8.4387390e+01  -9.0391904e+01  -8.0204523e+01  -5.7214201e+01  -2.4084563e+01   1.9597701e+01   7.1922758e+01   1.2942602e+02   1.8392279e+02   2.2829848e+02   2.5714985e+02   2.6719297e+02   2.5938516e+02   2.3774660e+02   2.0590747e+02   1.6844364e+02   1.3309152e+02   1.0594925e+02   9.2772454e+01   9.7460095e+01   1.2079969e+02   1.5850624e+02   2.0554908e+02   2.5372212e+02   2.9537936e+02   3.2123585e+02   3.2712456e+02   3.1060560e+02   2.7634414e+02   2.3120403e+02   1.8304284e+02   1.3723383e+02   9.5977672e+01   6.0494784e+01   3.1206007e+01   1.4010799e+01   1.3759532e+01   3.4991172e+01   7.6971920e+01   1.3603066e+02   2.0314736e+02   2.6971705e+02   3.2838848e+02   3.7486669e+02   4.0357397e+02   4.1108225e+02   3.9526101e+02   3.5912252e+02   3.1138686e+02   2.6182600e+02   2.1947654e+02   1.9182678e+02   1.7708767e+02   1.7364535e+02   1.7776763e+02   1.8860327e+02   2.0447209e+02   2.2640579e+02   2.5186467e+02   2.7753211e+02   2.9807803e+02   3.0578679e+02   2.9696352e+02   2.6906226e+02   2.2551781e+02   1.7330227e+02   1.1926552e+02   7.4347735e+01   4.2769713e+01   2.7310361e+01   2.8769265e+01   4.6687485e+01   8.0365813e+01   1.2817954e+02   1.8314958e+02   2.3869510e+02   2.8246868e+02   3.0716396e+02   3.1018876e+02   2.9211509e+02   2.5884707e+02   2.1548474e+02   1.6690326e+02   1.1410374e+02   6.0423005e+01   1.0707589e+01  -2.5438076e+01  -4.1229753e+01  -3.4031603e+01  -5.3923603e+00   3.4213319e+01   7.5901776e+01   1.1408380e+02   1.4525824e+02   1.6878751e+02   1.8754948e+02   1.9837665e+02   2.0122347e+02   1.9403835e+02   1.7635787e+02   1.5367806e+02   1.3268779e+02   1.2046856e+02   1.2376966e+02   1.4645754e+02   1.8621541e+02   2.4053540e+02   3.0300624e+02   3.6485982e+02   4.1570514e+02   4.4835271e+02   4.5861984e+02   4.4601012e+02   4.1217604e+02   3.6310331e+02   2.9999177e+02   2.2884858e+02   1.5384719e+02   8.1537162e+01   1.8009082e+01  -2.9874678e+01  -6.0082497e+01  -7.1769933e+01  -6.8344714e+01  -5.5233208e+01  -3.5381658e+01  -1.2560865e+01   9.4312017e+00   2.7560831e+01   3.6237138e+01   2.9786727e+01   5.6609227e+00  -3.3651546e+01  -8.1993615e+01  -1.2913964e+02  -1.6454374e+02  -1.8213417e+02  -1.8304526e+02  -1.6918612e+02  -1.4656839e+02  -1.1734655e+02  -8.0564126e+01  -3.9638376e+01   3.3486594e+00   3.8457943e+01   5.9692437e+01   6.1679385e+01   4.0144141e+01   1.1115336e-01  -5.4196513e+01  -1.1774659e+02  -1.8332559e+02  -2.4532311e+02  -2.9656874e+02  -3.3211173e+02  -3.4784023e+02  -3.4385923e+02  -3.2257760e+02  -2.8649424e+02  -2.4171314e+02  -1.9125266e+02  -1.4324259e+02  -1.0311608e+02  -7.5904767e+01  -6.5730499e+01  -7.1560607e+01  -9.1258131e+01  -1.2191812e+02  -1.5744300e+02  -1.9327763e+02  -2.2320331e+02  -2.3808198e+02  -2.3444938e+02  -2.1187554e+02  -1.7604315e+02  -1.3353258e+02  -9.3341877e+01  -6.2206213e+01  -3.9808569e+01  -2.9988628e+01  -3.5056903e+01  -5.7307772e+01  -9.6798657e+01  -1.5142670e+02  -2.1429467e+02  -2.7731911e+02  -3.3200098e+02  -3.7325708e+02  -3.9520225e+02  -3.9377893e+02  -3.6115024e+02  -2.9580507e+02  -1.9936082e+02  -7.7090472e+01   6.0762981e+01   2.0679377e+02   3.5125477e+02   4.8378467e+02   5.9594486e+02   6.7449594e+02   7.1237896e+02   7.0840583e+02   6.7170250e+02   6.1998142e+02   5.6674263e+02   5.2251214e+02   4.9022083e+02   4.6880774e+02   4.5910117e+02   4.6199316e+02   4.8088327e+02   5.1033081e+02   5.3982691e+02   5.5258068e+02   5.3121241e+02   4.6725842e+02   3.6241772e+02   2.2550539e+02   6.9117086e+01  -9.1951987e+01  -2.4845707e+02  -3.8752303e+02  -4.9642372e+02  -5.6121731e+02  -5.7215203e+02  -5.2678763e+02  -4.3181531e+02  -3.0459914e+02  -1.6749905e+02  -4.3064650e+01   5.3793868e+01   1.1254820e+02   1.3561055e+02   1.3063487e+02   1.0852260e+02   7.8133556e+01   4.8742396e+01   2.2314373e+01  -1.3013214e+00  -2.2152328e+01  -3.7833283e+01  -3.9918640e+01  -2.6121289e+01   6.8435071e+00   5.0668332e+01   9.5081685e+01   1.2560702e+02   1.3634917e+02   1.2669998e+02   1.0286692e+02   7.3151505e+01   4.3938979e+01   1.5399237e+01  -1.4061461e+01  -4.4524994e+01  -7.0364790e+01  -8.7020092e+01  -8.6636007e+01  -6.4482630e+01  -2.1095289e+01   3.8884554e+01   1.0814824e+02   1.7738174e+02   2.3906354e+02   2.8629338e+02   3.1154263e+02   3.1422702e+02   2.9402639e+02   2.5290956e+02   1.9786194e+02   1.3835243e+02   8.3611451e+01   4.4816523e+01   2.6293640e+01   2.6840766e+01   4.3262624e+01   6.8177275e+01   9.6118691e+01   1.2191928e+02   1.4831909e+02   1.7371739e+02   1.9796464e+02   2.1808608e+02   2.3083921e+02   2.3002866e+02   2.1653632e+02   1.9106186e+02   1.5860927e+02   1.2678891e+02   1.0202963e+02   8.6808603e+01   8.5003694e+01   9.7457122e+01   1.2481128e+02   1.6664052e+02   2.1886333e+02   2.7938166e+02   3.4086280e+02   3.9456080e+02   4.3006798e+02   4.4089663e+02   4.2281292e+02   3.7987859e+02   3.2119404e+02   2.5737673e+02   1.9984388e+02   1.5199394e+02   1.1639567e+02   9.1091147e+01   7.6104626e+01   7.6220915e+01   9.5060942e+01   1.3644268e+02   1.9197684e+02   2.4981661e+02   2.9445922e+02   3.1549107e+02   3.1217636e+02   2.9280989e+02   2.6978760e+02   2.5238620e+02   2.4128300e+02   2.3188205e+02   2.1753888e+02   1.9779004e+02   1.7869276e+02   1.7136562e+02   1.8479375e+02   2.2192665e+02   2.7305688e+02   3.2543040e+02   3.6600690e+02   3.8726891e+02   3.9097089e+02   3.8072729e+02   3.6336022e+02   3.3795862e+02   3.0063989e+02   2.4904432e+02   1.8562798e+02   1.1984735e+02   6.6342871e+01   3.6229054e+01   3.7584708e+01   6.6209805e+01   1.1068045e+02   1.5969323e+02   2.0265180e+02   2.3541683e+02   2.5811834e+02   2.7292197e+02   2.8164724e+02   2.8315596e+02   2.7646022e+02   2.6053734e+02   2.3487854e+02   2.0483411e+02   1.7784510e+02   1.5966660e+02   1.5768901e+02   1.7144984e+02   1.9740317e+02   2.2997847e+02   2.6392151e+02   2.9487176e+02   3.1909844e+02   3.3629571e+02   3.4132910e+02   3.2983181e+02   3.0056902e+02   2.5251933e+02   1.9166055e+02   1.2948657e+02   7.2317781e+01   2.8496316e+01   2.5720031e+00  -5.4131471e+00   4.5532955e+00   3.0194862e+01   6.9984083e+01   1.1647215e+02   1.6386680e+02   2.0878127e+02   2.4805497e+02   2.7653717e+02   2.9373045e+02   2.9420886e+02   2.7675757e+02   2.4321660e+02   2.0005223e+02   1.5571513e+02   1.1687347e+02   8.6625228e+01   6.7796746e+01   5.7422076e+01   5.5473814e+01   6.3880755e+01   8.4829933e+01   1.1531108e+02   1.4882946e+02   1.7618952e+02   1.8724226e+02   1.7749409e+02   1.4549313e+02   9.7939177e+01   4.2500461e+01  -1.4639913e+01  -6.6448363e+01  -1.0582829e+02  -1.3042578e+02  -1.3934562e+02  -1.3268192e+02  -1.1179157e+02  -7.8273202e+01  -3.6653568e+01   1.0178329e+01   5.8714620e+01   1.0465178e+02   1.4268510e+02   1.6816983e+02   1.7656233e+02   1.6658383e+02   1.3708673e+02   9.0642839e+01   3.4910039e+01  -2.3136842e+01  -7.2007082e+01  -1.0541985e+02  -1.1985730e+02  -1.1887202e+02  -1.0510829e+02  -8.6036489e+01  -6.4437584e+01  -4.3709424e+01  -2.8089790e+01  -1.9902709e+01  -2.3931391e+01  -4.3003650e+01  -7.7847293e+01  -1.2523612e+02  -1.7640805e+02  -2.2469964e+02  -2.6031214e+02  -2.8010588e+02  -2.8331560e+02  -2.7408988e+02  -2.5578054e+02  -2.3194184e+02  -2.0103764e+02  -1.6189384e+02  -1.1596754e+02  -7.1529057e+01  -3.9864532e+01  -2.9604394e+01  -4.3266505e+01  -7.8074014e+01  -1.2107130e+02  -1.6352241e+02  -2.0053783e+02  -2.3384606e+02  -2.6760707e+02  -3.0215946e+02  -3.3460279e+02  -3.5613838e+02  -3.5812502e+02  -3.3784403e+02  -3.0000740e+02  -2.5407712e+02  -2.1248915e+02  -1.8588777e+02  -1.8047490e+02  -1.9456250e+02  -2.2438932e+02  -2.6422628e+02  -3.0575666e+02  -3.4267927e+02  -3.7045258e+02  -3.8607870e+02  -3.8882025e+02  -3.7775200e+02  -3.5107125e+02  -3.0712322e+02  -2.5013597e+02  -1.8369826e+02  -1.2004906e+02  -7.0271969e+01  -4.3501861e+01  -4.3249177e+01  -6.5932099e+01  -1.0767928e+02  -1.5942968e+02  -2.1731724e+02  -2.7728901e+02  -3.3587583e+02  -3.8601342e+02  -4.2180562e+02  -4.3812936e+02  -4.3300227e+02  -4.0966556e+02  -3.7337313e+02  -3.2691701e+02  -2.7495445e+02  -2.2122823e+02  -1.7378563e+02  -1.4230149e+02  -1.3659595e+02  -1.5541132e+02  -1.9447746e+02  -2.3885496e+02  -2.7550941e+02  -2.9603682e+02  -3.0044141e+02  -2.9285884e+02  -2.7712578e+02  -2.5611750e+02  -2.2880585e+02  -1.9002871e+02  -1.4300024e+02  -9.0626499e+01  -4.2718044e+01  -1.0204847e+01   5.4098385e-01  -1.3817309e+01  -4.8368062e+01  -9.6032886e+01  -1.4693350e+02  -1.9499646e+02  -2.3671636e+02  -2.7297744e+02  -3.0182489e+02  -3.2008486e+02  -3.2175134e+02  -3.0408989e+02  -2.6644518e+02  -2.1577964e+02  -1.6400504e+02  -1.2119742e+02  -9.1800087e+01  -7.2921234e+01  -6.1819320e+01  -5.3643532e+01  -5.2462831e+01  -6.2577080e+01  -8.7066847e+01  -1.2350570e+02  -1.5973724e+02  -1.8261080e+02  -1.8057506e+02  -1.5204834e+02  -1.0451493e+02  -5.0333495e+01  -4.2834136e+00   2.8090381e+01   4.3244894e+01   4.4415468e+01   3.4295140e+01   1.6524464e+01  -9.0760894e+00  -4.1564059e+01  -8.0217801e+01  -1.2212012e+02  -1.6390641e+02  -1.9957867e+02  -2.2427774e+02  -2.2991132e+02  -2.1555470e+02  -1.7857049e+02  -1.2443214e+02  -5.9274019e+01   5.7715659e+00   5.9362884e+01   9.6758133e+01   1.1553853e+02   1.2215026e+02   1.2319426e+02   1.2442735e+02   1.2547656e+02   1.2230728e+02   1.1151826e+02   9.2559731e+01   7.2980974e+01   6.0808911e+01   6.6142007e+01   8.9013403e+01   1.2454204e+02   1.6434989e+02   1.9918832e+02   2.2668798e+02   2.4612934e+02   2.5812865e+02   2.6014506e+02   2.4673878e+02   2.1554349e+02   1.7195487e+02   1.2357508e+02   8.0486886e+01   5.1453427e+01   3.7150642e+01   3.6535314e+01   4.6433491e+01   6.9405287e+01   1.0590487e+02   1.5871594e+02   2.2160532e+02   2.8610924e+02   3.4134850e+02   3.7876532e+02   3.9468481e+02   3.8862800e+02   3.6233599e+02   3.1850390e+02   2.6326159e+02   2.0147166e+02   1.4493998e+02   1.0064424e+02   7.3084327e+01   6.2840772e+01   6.5399418e+01   7.8264478e+01   9.8342705e+01   1.2554538e+02   1.5252484e+02   1.7344486e+02   1.7667896e+02   1.5934134e+02   1.2257684e+02   7.6569928e+01   3.0270053e+01  -9.1301699e+00  -3.8894355e+01  -6.0525227e+01  -7.5525347e+01  -7.9032616e+01  -6.7244191e+01  -3.6569981e+01   9.5064434e+00   6.3843150e+01   1.1627744e+02   1.6040239e+02   1.9337997e+02   2.1668343e+02   2.2767101e+02   2.2291538e+02   1.9924562e+02   1.5549667e+02   9.7000161e+01   3.2884788e+01  -2.3720519e+01  -6.6474705e+01  -9.1499281e+01  -1.0085102e+02  -9.8730893e+01  -8.4403468e+01  -6.1839898e+01  -3.0134241e+01   5.2259488e+00   3.7135480e+01   5.7587765e+01   6.0234115e+01   4.6710178e+01   1.9685006e+01  -1.5373507e+01  -5.0685021e+01  -8.3828902e+01  -1.1151032e+02  -1.3231617e+02  -1.4235737e+02  -1.3770926e+02  -1.1458903e+02  -7.4244034e+01  -2.0564007e+01   3.9532708e+01   9.3858117e+01   1.3275844e+02   1.4985577e+02   1.4462881e+02   1.1775484e+02   7.6167138e+01   2.6819303e+01  -2.5812598e+01  -7.5424486e+01  -1.1868391e+02  -1.5402918e+02  -1.8036280e+02  -1.9754830e+02  -2.0464586e+02  -2.0185721e+02  -1.8818911e+02  -1.6288228e+02  -1.2668391e+02  -8.0062195e+01  -2.6469245e+01   3.1248876e+01   9.4215855e+01   1.5961442e+02   2.2849079e+02   2.9930153e+02   3.7126591e+02   4.3861242e+02   5.0082315e+02   5.5497909e+02   6.0129697e+02   6.3992146e+02   6.7400251e+02   6.9904881e+02   7.1551157e+02   7.2152013e+02   7.1767184e+02   7.0476947e+02   6.8340694e+02   6.5032371e+02   6.0147918e+02   5.3283534e+02   4.4487519e+02   3.4191950e+02   2.3333151e+02   1.2671423e+02   2.6206169e+01  -7.0032087e+01  -1.6607289e+02  -2.6118565e+02  -3.4651580e+02  -4.0852259e+02  -4.3325136e+02  -4.1753786e+02  -3.6825064e+02  -3.0167224e+02  -2.3710105e+02  -1.8672522e+02  -1.5678404e+02  -1.4599271e+02  -1.4817127e+02  -1.5799120e+02  -1.7073703e+02  -1.8197912e+02  -1.8406549e+02  -1.7236561e+02  -1.4523239e+02  -1.0468703e+02  -6.0869191e+01  -2.2326360e+01   2.7607724e+00   1.0312208e+01   1.9413102e+00  -1.9674880e+01  -5.4699590e+01  -1.0332926e+02  -1.6525187e+02  -2.3831126e+02  -3.1328998e+02  -3.7570756e+02  -4.1052844e+02  -4.0668544e+02  -3.6934961e+02  -3.0990990e+02  -2.4966600e+02  -2.0327449e+02  -1.7602214e+02  -1.6302273e+02  -1.5344330e+02  -1.3986208e+02  -1.2684203e+02  -1.2577506e+02  -1.4601545e+02  -1.9128291e+02  -2.5027881e+02  -3.0643154e+02  -3.4566922e+02  -3.6411509e+02  -3.6861148e+02  -3.6500184e+02  -3.5913357e+02  -3.4758184e+02  -3.2613277e+02  -2.9309694e+02  -2.6054692e+02  -2.4058331e+02  -2.4572992e+02  -2.7754166e+02  -3.2447983e+02  -3.7107375e+02  -4.0534863e+02  -4.2346363e+02  -4.2847582e+02  -4.2612804e+02  -4.1555534e+02  -3.9181544e+02  -3.4917124e+02  -2.8508661e+02  -2.0693493e+02  -1.2445763e+02  -4.8044026e+01   1.7073287e+01   6.8601066e+01   1.0884363e+02   1.3514999e+02   1.4709239e+02   1.4235353e+02   1.2233947e+02   9.3571093e+01   6.2936572e+01   3.8905544e+01   2.4810258e+01   2.0289728e+01   2.3970429e+01   3.5424927e+01   5.3412201e+01   7.4365494e+01   9.7060069e+01   1.1336872e+02   1.2000187e+02   1.1313033e+02   9.2805400e+01   6.2118394e+01   2.6076628e+01  -9.7881149e+00  -4.0026649e+01  -6.2013501e+01  -7.1722044e+01  -6.8428994e+01  -5.1252220e+01  -1.8448317e+01   2.6571778e+01   8.1513455e+01   1.4172087e+02   1.9988330e+02   2.5083278e+02   2.9032775e+02   3.1271916e+02   3.1641163e+02   2.9805831e+02   2.6146452e+02   2.0921321e+02   1.5206280e+02   9.8197236e+01   5.6428632e+01   3.2457805e+01   2.5290562e+01   3.4886227e+01   5.7083335e+01   9.1810335e+01   1.3655067e+02   1.8699774e+02   2.3480971e+02   2.7136132e+02   2.8739003e+02   2.8244910e+02   2.5810565e+02   2.2185750e+02   1.8377993e+02   1.5095060e+02   1.2873116e+02   1.1800329e+02   1.2046388e+02   1.3807548e+02   1.7074831e+02   2.1929871e+02   2.8169140e+02   3.5253552e+02   4.2076929e+02   4.7444316e+02   5.0449752e+02   5.0743113e+02   4.8677123e+02   4.5228211e+02   4.1088355e+02   3.6928969e+02   3.2741522e+02   2.8362734e+02   2.3894200e+02   1.9827019e+02   1.7081339e+02   1.6568710e+02   1.8582076e+02   2.2614565e+02   2.8004373e+02   3.3499536e+02   3.8333822e+02   4.2003419e+02   4.4034155e+02   4.4530199e+02   4.3697782e+02   4.1540865e+02   3.8629472e+02   3.5445119e+02   3.2410851e+02   3.0315539e+02   2.9642767e+02   3.0714117e+02   3.3554677e+02   3.7585573e+02   4.2044705e+02   4.5733031e+02   4.8280289e+02   4.9621343e+02   5.0272947e+02   5.0600551e+02   5.0666135e+02   4.9750506e+02   4.7046946e+02   4.2426860e+02   3.6381836e+02   3.0149692e+02   2.4934208e+02   2.1729118e+02   2.0556367e+02   2.1126738e+02   2.3027970e+02   2.5941855e+02   2.9987903e+02   3.4887686e+02   4.0341244e+02   4.5405309e+02   4.9162967e+02   5.0875528e+02   5.0609794e+02   4.8737267e+02   4.5905612e+02   4.2386436e+02   3.8706635e+02   3.5072727e+02   3.2198541e+02   3.0646140e+02   3.0988040e+02   3.3395936e+02   3.7357465e+02   4.1718806e+02   4.5547369e+02   4.7806042e+02   4.8128966e+02   4.6788473e+02   4.4244040e+02   4.0866482e+02   3.6933938e+02   3.2199945e+02   2.6837711e+02   2.0967814e+02   1.5378894e+02   1.0951779e+02   8.3971468e+01   8.4149915e+01   1.0981263e+02   1.5563504e+02   2.1063411e+02   2.6580676e+02   3.1089659e+02   3.3918760e+02   3.5222025e+02   3.4833531e+02   3.3397558e+02   3.1070622e+02   2.7995411e+02   2.4250263e+02   1.9981196e+02   1.5525746e+02   1.1438974e+02   8.5316320e+01   7.3288338e+01   8.1547589e+01   1.0445372e+02   1.3387378e+02   1.5677989e+02   1.6697356e+02   1.6183688e+02   1.4700790e+02   1.2588698e+02   1.0190427e+02   7.2510047e+01   3.1887457e+01  -2.3575450e+01  -8.8984874e+01  -1.5471883e+02  -2.0417900e+02  -2.2541644e+02  -2.1354629e+02  -1.7689544e+02  -1.2486182e+02  -7.1503135e+01  -2.2908125e+01   1.7566813e+01   5.1095663e+01   7.7110310e+01   9.0862245e+01   8.6745152e+01   6.0336858e+01   1.3156706e+01  -4.8827924e+01  -1.1187866e+02  -1.6625561e+02  -2.0197569e+02  -2.1845874e+02  -2.1897527e+02  -2.1283742e+02  -2.0430875e+02  -1.9424753e+02  -1.8153314e+02  -1.6235497e+02  -1.3946191e+02  -1.1847470e+02  -1.1035617e+02  -1.2311166e+02  -1.6076188e+02  -2.1659232e+02  -2.7764693e+02  -3.3039959e+02  -3.6151294e+02  -3.6858233e+02  -3.5376325e+02  -3.2419711e+02  -2.8717620e+02  -2.4802378e+02  -2.0670327e+02  -1.6420682e+02  -1.2080315e+02  -8.2243590e+01  -5.5030816e+01  -4.6847105e+01  -6.1217263e+01  -9.5450769e+01  -1.4487030e+02  -2.0129582e+02  -2.5471951e+02  -3.0308206e+02  -3.4104662e+02  -3.6866885e+02  -3.8187438e+02  -3.8068211e+02  -3.6614536e+02  -3.4502125e+02  -3.2421468e+02  -3.0907400e+02  -3.0363462e+02  -3.0491369e+02  -3.1235199e+02  -3.2347828e+02  -3.3984193e+02  -3.6522234e+02  -3.9808645e+02  -4.3123218e+02  -4.5852977e+02  -4.6865956e+02  -4.5874570e+02  -4.3079779e+02  -3.9089956e+02  -3.4611656e+02  -3.0413353e+02  -2.6466783e+02  -2.2973651e+02  -2.0187354e+02  -1.8440149e+02  -1.8485503e+02  -2.0663303e+02  -2.5292683e+02  -3.1793449e+02  -3.9233383e+02  -4.6095189e+02  -5.1454306e+02  -5.4657291e+02  -5.5790520e+02  -5.5330158e+02  -5.3766966e+02  -5.1402784e+02  -4.8119391e+02  -4.3924080e+02  -3.8879377e+02  -3.3726449e+02  -2.9512505e+02  -2.7131938e+02  -2.6989094e+02  -2.8787538e+02  -3.1647146e+02  -3.4646557e+02  -3.7085073e+02  -3.8355477e+02  -3.8517787e+02  -3.7663777e+02  -3.5963415e+02  -3.3486768e+02  -3.0298250e+02  -2.6523859e+02  -2.2495670e+02  -1.8480988e+02  -1.5205650e+02  -1.3281787e+02  -1.3249820e+02  -1.5442584e+02  -1.9576539e+02  -2.4871421e+02  -3.0395904e+02  -3.5333340e+02  -3.9358986e+02  -4.2218549e+02  -4.3997749e+02  -4.4573729e+02  -4.3841594e+02  -4.1512661e+02  -3.7784749e+02  -3.3088546e+02  -2.8317279e+02  -2.4049085e+02  -2.0672432e+02  -1.8124496e+02  -1.6650591e+02  -1.6489904e+02  -1.7789251e+02  -2.0642765e+02  -2.4751954e+02  -2.9197855e+02  -3.3015367e+02  -3.5259602e+02  -3.5955182e+02  -3.5121734e+02  -3.3272098e+02  -3.0483444e+02  -2.7245218e+02  -2.3990931e+02  -2.1523082e+02  -2.0841416e+02  -2.2684330e+02  -2.6991477e+02  -3.2892846e+02  -3.9125968e+02  -4.4679191e+02  -4.8955394e+02  -5.1947812e+02  -5.3817939e+02  -5.4565215e+02  -5.4179236e+02  -5.2267542e+02  -4.8755292e+02  -4.4156808e+02  -3.8822764e+02  -3.3470007e+02  -2.8603252e+02  -2.4839035e+02  -2.2341877e+02  -2.1481043e+02  -2.2213454e+02  -2.4394814e+02  -2.7417246e+02  -3.0768194e+02  -3.3802482e+02  -3.6017761e+02  -3.7123082e+02  -3.6891373e+02  -3.5188758e+02  -3.2076831e+02  -2.7987698e+02  -2.3875234e+02  -2.0449289e+02  -1.8601891e+02  -1.8635538e+02  -2.0403469e+02  -2.3270145e+02  -2.6597479e+02  -2.9858851e+02  -3.2779220e+02  -3.5596090e+02  -3.8033237e+02  -4.0177416e+02  -4.1447715e+02  -4.1248275e+02  -3.8997217e+02  -3.4727786e+02  -2.8461403e+02  -2.1356116e+02  -1.4237104e+02  -8.5184159e+01  -4.7261699e+01  -3.2333457e+01  -3.7146728e+01  -5.4274845e+01  -8.0209352e+01  -1.1072178e+02  -1.4644561e+02  -1.8459950e+02  -2.2375471e+02  -2.5854392e+02  -2.8221707e+02  -2.9197111e+02  -2.8701036e+02  -2.7133204e+02  -2.4826733e+02  -2.1884230e+02  -1.8304668e+02  -1.3811103e+02  -8.5891550e+01  -3.0446878e+01   2.7134768e+01   8.3633279e+01   1.3933261e+02   1.9844327e+02   2.6338892e+02   3.3005365e+02   3.9609210e+02   4.5539607e+02   5.0479129e+02   5.4700698e+02   5.8092393e+02   6.1107097e+02   6.3530443e+02   6.5358245e+02   6.6473153e+02   6.6910455e+02   6.6404325e+02   6.4908424e+02   6.1888147e+02   5.7085616e+02   5.0462054e+02   4.1925228e+02   3.1851619e+02   2.0713570e+02   8.9210485e+01  -3.2143852e+01  -1.4888770e+02  -2.5287137e+02  -3.3639802e+02  -3.9159670e+02  -4.1469159e+02  -4.0626734e+02  -3.7163044e+02  -3.2135341e+02  -2.6606326e+02  -2.1650291e+02  -1.8285665e+02  -1.6529496e+02  -1.5966440e+02  -1.5622808e+02  -1.4635550e+02  -1.2206665e+02  -8.4355343e+01  -4.0245876e+01   3.4268951e+00   4.1486331e+01   7.3070682e+01   9.6390878e+01   1.1348909e+02   1.2089664e+02   1.1510356e+02   9.1776498e+01   5.2695108e+01   2.4143770e+00  -5.0303034e+01  -9.6210075e+01  -1.3135909e+02  -1.5284286e+02  -1.6439609e+02  -1.6577837e+02  -1.5689013e+02  -1.3460747e+02  -9.7360410e+01  -4.9512233e+01  -2.6245677e+00   3.2292751e+01   4.6445881e+01   3.7746555e+01   1.5062066e+01  -1.0806820e+01  -2.9415169e+01  -3.8189769e+01  -3.7099908e+01  -3.3390996e+01  -2.8279737e+01  -2.2515745e+01  -9.7315963e+00   1.3467218e+01   4.9686488e+01   9.4177882e+01   1.3846663e+02   1.7408828e+02   1.9333544e+02   1.9291389e+02   1.7641876e+02   1.4456558e+02   1.0114366e+02   4.9695858e+01  -5.0342093e+00  -5.5815722e+01  -9.5711446e+01  -1.2082313e+02  -1.2790344e+02  -1.1975431e+02  -1.0135954e+02  -7.6735077e+01  -4.4517920e+01  -6.3491959e+00   3.8866237e+01   8.4724522e+01   1.2201073e+02   1.4121887e+02   1.3683618e+02   1.1035542e+02   7.2016113e+01   3.2311457e+01   3.2996391e-01  -1.7977803e+01  -2.2506816e+01  -1.3582660e+01   4.6555929e+00   2.8127298e+01   5.4954494e+01   8.3859107e+01   1.1275936e+02   1.4048443e+02   1.6450998e+02   1.7661415e+02   1.7336417e+02   1.5036575e+02   1.0823978e+02   5.4327002e+01  -3.8420234e+00  -5.5242319e+01  -9.5124131e+01  -1.1975459e+02  -1.2703341e+02  -1.1690055e+02  -8.6481583e+01  -3.8951205e+01   2.1867534e+01   8.7115241e+01   1.4563885e+02   1.9176695e+02   2.2101555e+02   2.3263187e+02   2.3090561e+02   2.1620794e+02   1.9075582e+02   1.5513489e+02   1.1464728e+02   7.6573070e+01   4.7445794e+01   3.4439962e+01   3.5952791e+01   4.8436326e+01   6.7501367e+01   8.8278085e+01   1.1298335e+02   1.3861630e+02   1.6168707e+02   1.7587817e+02   1.6954742e+02   1.3900298e+02   8.5510552e+01   2.2030786e+01  -3.5280398e+01  -7.5742178e+01  -9.6900828e+01  -1.0226277e+02  -9.9910294e+01  -9.2916669e+01  -7.7504171e+01  -4.9922518e+01  -5.0621032e+00   5.3147707e+01   1.1147691e+02   1.5817301e+02   1.8367657e+02   1.8718056e+02   1.7196038e+02   1.4643240e+02   1.1493440e+02   7.7259055e+01   3.6003736e+01  -9.1760236e+00  -5.1308894e+01  -8.4747478e+01  -1.0262018e+02  -1.0103634e+02  -8.4018935e+01  -5.7175786e+01  -3.0156173e+01  -9.9678491e+00  -1.2488317e+00  -4.5938984e+00  -2.0028336e+01  -4.7701269e+01  -8.3841093e+01  -1.2398013e+02  -1.6441872e+02  -1.9686636e+02  -2.1617374e+02  -2.1905608e+02  -2.0870960e+02  -1.8623651e+02  -1.5681975e+02  -1.2062160e+02  -7.9417727e+01  -3.3013369e+01   1.4482227e+01   5.6427900e+01   8.2367411e+01   8.5596500e+01   6.8505212e+01   3.3650261e+01  -9.4515852e+00  -5.6781733e+01  -1.0446826e+02  -1.5253885e+02  -1.9667819e+02  -2.3089037e+02  -2.4797902e+02  -2.4278331e+02  -2.1614023e+02  -1.7958098e+02  -1.4180398e+02  -1.1299819e+02  -9.5108819e+01  -8.4146058e+01  -7.9630627e+01  -8.1250867e+01  -9.6778211e+01  -1.2825115e+02  -1.7440312e+02  -2.2327500e+02  -2.6092874e+02  -2.7316413e+02  -2.5514044e+02  -2.1581692e+02  -1.6615068e+02  -1.1802312e+02  -7.5902739e+01  -3.8287418e+01  -1.9996980e+00   3.1572015e+01   5.8185130e+01   6.6312532e+01   4.7493680e+01   1.4195435e+00  -6.7261091e+01  -1.4538901e+02  -2.1893749e+02  -2.7876626e+02  -3.1938736e+02  -3.4064265e+02  -3.4520426e+02  -3.3683307e+02  -3.1736299e+02  -2.8841487e+02  -2.4988021e+02  -2.0524531e+02  -1.6184721e+02  -1.2816175e+02  -1.1021916e+02  -1.1522505e+02  -1.3843620e+02  -1.7430702e+02  -2.1288423e+02  -2.4739533e+02  -2.7494895e+02  -2.9625088e+02  -3.1323717e+02  -3.2453694e+02  -3.2770096e+02  -3.1916326e+02  -2.9893971e+02  -2.7110288e+02  -2.4410330e+02  -2.2402793e+02  -2.1889622e+02  -2.2708863e+02  -2.4998624e+02  -2.8587084e+02  -3.3410120e+02  -3.9354397e+02  -4.6020344e+02  -5.2796834e+02  -5.8537739e+02  -6.2230335e+02  -6.3446548e+02  -6.2070326e+02  -5.8697621e+02  -5.4009041e+02  -4.8718919e+02  -4.3307615e+02  -3.7946112e+02  -3.2722906e+02  -2.7982885e+02  -2.4086198e+02  -2.1092447e+02  -1.9472087e+02  -1.8843244e+02  -1.8828789e+02  -1.8925744e+02  -1.8577503e+02  -1.7438951e+02  -1.5525626e+02  -1.3140154e+02  -1.0372395e+02  -7.5732401e+01  -4.7055926e+01  -1.6792418e+01   1.0215383e+01   3.0077942e+01   3.6434966e+01   2.4830306e+01  -6.1671910e+00  -5.2115347e+01  -1.0410493e+02  -1.5536823e+02  -1.9700998e+02  -2.2776462e+02  -2.4467910e+02  -2.4763095e+02  -2.3461243e+02  -2.0474260e+02  -1.5900547e+02  -1.0174832e+02  -4.3006363e+01   6.2573717e+00   3.9896885e+01   5.5214805e+01   5.3398524e+01   4.1704763e+01   2.3369952e+01  -1.7389252e+00  -3.0684221e+01  -6.5151679e+01  -9.7183644e+01  -1.2385292e+02  -1.3678565e+02  -1.3646400e+02  -1.2226782e+02  -1.0025164e+02  -7.3687859e+01  -4.5439818e+01  -2.3251016e+01  -1.1048001e+01  -1.7353406e+01  -4.2889814e+01  -8.7430511e+01  -1.4191876e+02  -1.9484177e+02  -2.3581036e+02  -2.6126770e+02  -2.7123214e+02  -2.7197499e+02  -2.6454148e+02  -2.5204463e+02  -2.2969067e+02  -1.9453189e+02  -1.4497722e+02  -8.5124820e+01  -2.3003468e+01   3.1177707e+01   6.7672553e+01   7.9650472e+01   6.7399373e+01   3.7253497e+01  -2.7428169e+00  -4.5389206e+01  -8.3026384e+01  -1.1628275e+02  -1.4177047e+02  -1.5763907e+02  -1.5791317e+02  -1.4157140e+02  -1.0935743e+02  -6.7351267e+01  -2.7360704e+01   1.7830633e+00   1.6928376e+01   1.8208108e+01   1.0463655e+01  -1.5706857e+00  -1.7348780e+01  -3.7848849e+01  -6.3119967e+01  -8.7965134e+01  -1.0166855e+02  -9.4668250e+01  -6.2082105e+01  -9.0146568e+00   5.3398637e+01   1.1321796e+02   1.6516850e+02   2.0729172e+02   2.4469369e+02   2.7829177e+02   3.0546143e+02   3.1849776e+02   3.1183077e+02   2.8096600e+02   2.3115871e+02   1.7086474e+02   1.1204114e+02   6.3389020e+01   3.2638800e+01   2.0971506e+01   2.3651725e+01   3.5919102e+01   4.7150140e+01   5.6266606e+01   6.1332795e+01   6.7260037e+01   7.8521581e+01   9.3780937e+01   1.0634844e+02   1.0840439e+02   9.0958926e+01   5.7554837e+01   1.6754011e+01  -1.8521690e+01  -3.7704835e+01  -4.0253997e+01  -2.8189714e+01  -8.4208220e+00   1.8185435e+01   5.3000837e+01   9.6076980e+01   1.4577213e+02   1.9348134e+02   2.2637300e+02   2.3403366e+02   2.1493446e+02   1.7565632e+02   1.2684286e+02   7.8886161e+01   3.5385997e+01  -1.5466479e+00  -3.6050775e+01  -6.7241062e+01  -8.9803476e+01  -9.8383167e+01  -8.7714754e+01  -6.1479851e+01  -2.5912413e+01   8.7933405e+00   3.6192185e+01   5.6318401e+01   7.2339456e+01   8.7045698e+01   9.9111299e+01   1.0309295e+02   9.3168313e+01   6.6651481e+01   3.2352911e+01   1.8719895e+00  -1.2079950e+01  -3.2330801e+00   2.4887704e+01   6.3859181e+01   1.0152116e+02   1.3238251e+02   1.5621766e+02   1.7677411e+02   1.9449529e+02   2.0216144e+02   1.9336110e+02   1.6272841e+02   1.1091225e+02   4.6279458e+01  -1.7610631e+01  -7.1692065e+01  -1.1214881e+02  -1.3814268e+02  -1.4941718e+02  -1.4769798e+02  -1.2983772e+02  -9.6687017e+01  -5.4709365e+01  -1.2391800e+01   2.4469892e+01   5.1516161e+01   6.9500382e+01   7.8807860e+01   7.9749807e+01   6.8594956e+01   4.3337285e+01   1.0233439e+01  -1.9825706e+01  -3.0022404e+01  -5.3014968e+00   5.9052443e+01   1.5702920e+02   2.7775088e+02   4.0659299e+02   5.3255237e+02   6.4481177e+02   7.3542428e+02   7.9802401e+02   8.2746598e+02   8.2230688e+02   7.8505997e+02   7.2218738e+02   6.3982834e+02   5.4829771e+02   4.5741965e+02   3.8078451e+02   3.3102651e+02   3.1721863e+02   3.3846482e+02   3.8474448e+02   4.3703010e+02   4.7666304e+02   4.8993842e+02   4.7182168e+02   4.2270299e+02   3.4509029e+02   2.4315037e+02   1.2102797e+02  -1.2097566e+01  -1.4222333e+02  -2.5197097e+02  -3.2821013e+02  -3.6277167e+02  -3.5715421e+02  -3.2112832e+02  -2.6615742e+02  -2.0157938e+02  -1.3452549e+02  -7.1589192e+01  -1.6290770e+01   2.7587869e+01   5.3706613e+01   6.0812030e+01   4.7234272e+01   1.6167204e+01  -2.9308377e+01  -8.3463257e+01  -1.3838981e+02  -1.8664157e+02  -2.2095715e+02  -2.3497174e+02  -2.2682034e+02  -1.9755106e+02  -1.5529194e+02  -1.0814711e+02  -6.1834653e+01  -2.1112486e+01   1.6933104e+01   5.2642868e+01   8.5485421e+01   1.0561141e+02   1.0518930e+02   7.8479078e+01   2.9635972e+01  -2.8728721e+01  -8.3169917e+01  -1.2313028e+02  -1.4766475e+02  -1.6307120e+02  -1.7334425e+02  -1.8139309e+02  -1.8299585e+02  -1.7349958e+02  -1.5130812e+02  -1.2122937e+02  -9.6772070e+01  -8.7488755e+01  -9.8455384e+01  -1.2895922e+02  -1.7043812e+02  -2.1468046e+02  -2.5325884e+02  -2.8113957e+02  -2.9638519e+02  -2.9885473e+02  -2.8680617e+02  -2.6131840e+02  -2.2347376e+02  -1.7627438e+02  -1.2230100e+02  -6.8157905e+01  -1.8775569e+01   1.9336891e+01   4.0791618e+01   4.3881551e+01   2.7925773e+01  -2.6448920e+00  -4.5473403e+01  -9.5708196e+01  -1.5062414e+02  -2.0435021e+02  -2.5060816e+02  -2.8336483e+02  -2.9731269e+02  -2.9111686e+02  -2.6939772e+02  -2.3845410e+02  -2.0876667e+02  -1.8235025e+02  -1.6204427e+02  -1.4383773e+02  -1.2632068e+02  -1.1333607e+02  -1.0787881e+02  -1.1725518e+02  -1.4247992e+02  -1.7885648e+02  -2.1466061e+02  -2.3783330e+02  -2.3858779e+02  -2.1484630e+02  -1.7144577e+02  -1.1808211e+02  -6.6998564e+01  -2.6457721e+01  -2.0667647e+00   8.9549978e+00   1.3468610e+01   1.2975252e+01   9.9683529e+00  -9.7025463e-01  -2.7343898e+01  -7.0162538e+01  -1.2755781e+02  -1.8951086e+02  -2.4259795e+02  -2.7865613e+02  -2.9128187e+02  -2.8409868e+02  -2.5975931e+02  -2.2268491e+02  -1.7657751e+02  -1.2477230e+02  -7.4517843e+01  -3.1280377e+01  -3.1658292e+00   9.4641802e+00   7.1316962e+00  -3.8793878e+00  -1.8888180e+01  -3.5373039e+01  -5.2642079e+01  -6.7525290e+01  -7.5992939e+01  -7.3614777e+01  -5.7796331e+01  -2.7758720e+01   9.7364936e+00   4.6881658e+01   7.3470318e+01   8.2610633e+01   7.4408454e+01   4.7527092e+01   9.5476332e+00  -3.7921099e+01  -8.8399116e+01  -1.4094034e+02  -1.9473381e+02  -2.4782296e+02  -2.9684899e+02  -3.3372046e+02  -3.5312167e+02  -3.4679267e+02  -3.1654524e+02  -2.6801286e+02  -2.1016887e+02  -1.5567738e+02  -1.1316309e+02  -8.5497120e+01  -7.4193100e+01  -7.8992408e+01  -9.5691906e+01  -1.2223507e+02  -1.5505132e+02  -1.8859554e+02  -2.1601300e+02  -2.3383811e+02  -2.4063105e+02  -2.3846572e+02  -2.2920194e+02  -2.1550535e+02  -1.9461186e+02  -1.6786926e+02  -1.3911815e+02  -1.1599688e+02  -1.0826572e+02  -1.2324305e+02  -1.6143161e+02  -2.1438777e+02  -2.7085359e+02  -3.2213673e+02  -3.6668906e+02  -4.0480852e+02  -4.3837179e+02  -4.6550051e+02  -4.7707269e+02  -4.6601114e+02  -4.2830971e+02  -3.6979359e+02  -3.0164435e+02  -2.3775230e+02  -1.8798104e+02  -1.5544087e+02  -1.3986615e+02  -1.4217777e+02  -1.6128641e+02  -1.9516100e+02  -2.4115071e+02  -2.9151492e+02  -3.3708902e+02  -3.7099479e+02  -3.8929967e+02  -3.9453602e+02  -3.8901098e+02  -3.7486646e+02  -3.5788240e+02  -3.3805137e+02  -3.1998416e+02  -3.0622818e+02  -2.9959286e+02  -3.0257522e+02  -3.1696536e+02  -3.4168701e+02  -3.7589688e+02  -4.1433111e+02  -4.5385388e+02  -4.8713515e+02  -5.1236740e+02  -5.2392457e+02  -5.1887472e+02  -4.9527613e+02  -4.5521588e+02  -4.0258378e+02  -3.4460990e+02  -2.9122535e+02  -2.4632967e+02  -2.1406074e+02  -1.9316258e+02  -1.7953368e+02  -1.7601465e+02  -1.8544133e+02  -2.1295550e+02  -2.6153038e+02  -3.2363985e+02  -3.8698223e+02  -4.3716177e+02  -4.6423771e+02  -4.6606873e+02  -4.4940880e+02  -4.2174340e+02  -3.9289148e+02  -3.6842847e+02  -3.5001099e+02  -3.3969611e+02  -3.3634893e+02  -3.3821985e+02  -3.4374992e+02  -3.5263144e+02  -3.6411600e+02  -3.7952913e+02  -3.9992140e+02  -4.2176790e+02  -4.3962083e+02  -4.4562554e+02  -4.3382874e+02  -4.0223517e+02  -3.5460240e+02  -2.9899902e+02  -2.4618277e+02  -2.0188002e+02  -1.7006118e+02  -1.5030748e+02  -1.4535291e+02  -1.5486162e+02  -1.7847049e+02  -2.1709100e+02  -2.6343052e+02  -3.1266432e+02  -3.5716917e+02  -3.8822240e+02  -4.0357460e+02  -4.0382149e+02  -3.9052772e+02  -3.6908875e+02  -3.4535168e+02  -3.2504847e+02  -3.0811962e+02  -2.9702096e+02  -2.8710756e+02  -2.7917855e+02  -2.7424394e+02  -2.7554417e+02  -2.8581941e+02  -3.0679060e+02  -3.3178608e+02  -3.5442763e+02  -3.6528125e+02  -3.6038296e+02  -3.3456595e+02  -2.9154339e+02  -2.3473249e+02  -1.7184202e+02  -1.1227641e+02  -6.5435192e+01  -3.9000697e+01  -3.5309350e+01  -4.7890736e+01  -7.1237214e+01  -9.9835517e+01  -1.3345788e+02  -1.7767525e+02  -2.3752575e+02  -3.0525112e+02  -3.6800520e+02  -4.0644143e+02  -4.0810338e+02  -3.7056815e+02  -3.0832543e+02  -2.3941012e+02  -1.8083960e+02  -1.3793173e+02  -1.1059601e+02  -9.0692340e+01  -7.5543266e+01  -6.8663521e+01  -7.2741420e+01  -9.0872997e+01  -1.1901463e+02  -1.4859119e+02  -1.6817507e+02  -1.7414278e+02  -1.6521764e+02  -1.4482415e+02  -1.1820417e+02  -8.4277721e+01  -4.6266488e+01  -5.1293644e+00   3.2113767e+01   5.7079097e+01   6.1642143e+01   4.2402127e+01   3.9233270e+00  -4.5281224e+01  -9.2023697e+01  -1.2993906e+02  -1.5514169e+02  -1.7095575e+02  -1.7962332e+02  -1.8589779e+02  -1.8544414e+02  -1.7699466e+02  -1.5423920e+02  -1.1646605e+02  -6.6001044e+01  -1.3519931e+01   3.2675025e+01   6.2318230e+01   7.1697041e+01   6.6953869e+01   5.6135994e+01   4.9989347e+01   5.0526327e+01   5.9428738e+01   6.7367828e+01   7.1335509e+01   6.8077504e+01   6.4706370e+01   6.7546522e+01   8.0232709e+01   1.0304824e+02   1.2945661e+02   1.4775394e+02   1.5075289e+02   1.3440379e+02   1.0226752e+02   5.8773873e+01   1.1228290e+01  -3.5436613e+01  -7.8133705e+01  -1.1625698e+02  -1.4939664e+02  -1.7503925e+02  -1.9115989e+02  -1.9662747e+02  -1.8836871e+02  -1.6826853e+02  -1.3981896e+02  -1.0756255e+02  -7.2402967e+01  -3.9873446e+01  -1.3458531e+01   3.9421808e+00   6.3390902e+00  -1.1274606e+01  -4.6109612e+01  -9.2999633e+01  -1.4199471e+02  -1.8604766e+02  -2.1970058e+02  -2.4367887e+02  -2.6031314e+02  -2.7173307e+02  -2.7680871e+02  -2.7184841e+02  -2.5609646e+02  -2.3309993e+02  -2.1303239e+02  -2.0706804e+02  -2.2389272e+02  -2.6442036e+02  -3.2075486e+02  -3.8240479e+02  -4.3672359e+02  -4.7851708e+02  -5.0573750e+02  -5.2017094e+02  -5.2002551e+02  -5.0534046e+02  -4.7515988e+02  -4.3344589e+02  -3.8574089e+02  -3.3862172e+02  -2.9601657e+02  -2.5947382e+02  -2.3047825e+02  -2.1390402e+02  -2.1467556e+02  -2.3668001e+02  -2.8094149e+02  -3.4003267e+02  -3.9966801e+02  -4.5039909e+02  -4.8431882e+02  -5.0468161e+02  -5.1535707e+02  -5.2305915e+02  -5.2732156e+02  -5.2822598e+02  -5.2192177e+02  -5.1000474e+02  -4.9684067e+02  -4.8792707e+02  -4.8738071e+02  -4.9562188e+02  -5.1029862e+02  -5.3046219e+02  -5.5397003e+02  -5.7706215e+02  -5.9903260e+02  -6.1690427e+02  -6.2501522e+02  -6.2143526e+02  -6.0215453e+02  -5.6801662e+02  -5.2240195e+02  -4.7170183e+02  -4.2265110e+02  -3.8760684e+02  -3.7186778e+02  -3.8212465e+02  -4.1911375e+02  -4.7951981e+02  -5.5614120e+02  -6.4129537e+02  -7.2241137e+02  -7.9173120e+02  -8.4002755e+02  -8.5824394e+02  -8.4497385e+02  -8.0071699e+02  -7.3088106e+02  -6.4153162e+02  -5.4092596e+02  -4.3489585e+02  -3.3016405e+02  -2.3468762e+02  -1.5511716e+02  -9.9444999e+01  -7.3889284e+01  -7.9028926e+01  -1.0816993e+02  -1.5189242e+02  -1.9970263e+02  -2.3969993e+02  -2.6416691e+02  -2.7000050e+02  -2.5292340e+02  -2.1344544e+02  -1.5457709e+02  -8.6332160e+01  -2.0084359e+01   2.6136683e+01   3.7316531e+01   3.0037921e+00  -7.9338821e+01  -2.0122847e+02  -3.5131676e+02  -5.1378572e+02  -6.7293427e+02  -8.1087881e+02  -9.1127648e+02  -9.6497667e+02  -9.6451586e+02  -9.1539214e+02  -8.2908451e+02  -7.2481662e+02  -6.2009794e+02  -5.2710547e+02  -4.5398920e+02  -4.0319489e+02  -3.7189412e+02  -3.5559757e+02  -3.5300134e+02  -3.6008520e+02  -3.7344717e+02  -3.8982698e+02  -4.0774522e+02  -4.2216987e+02  -4.3011792e+02  -4.2610883e+02  -4.0840709e+02  -3.7501917e+02  -3.3044439e+02  -2.8321209e+02  -2.4226697e+02  -2.1928584e+02  -2.1601749e+02  -2.3373677e+02  -2.6388672e+02  -2.9995982e+02  -3.3563610e+02  -3.6916231e+02  -4.0092385e+02  -4.3513528e+02  -4.6955926e+02  -4.9915983e+02  -5.1360410e+02  -5.0554705e+02  -4.7166185e+02  -4.1741268e+02  -3.5660056e+02  -2.9874257e+02  -2.5336735e+02  -2.2131962e+02  -1.9616542e+02  -1.7577595e+02  -1.5714256e+02  -1.4644591e+02  -1.4836636e+02  -1.6659198e+02  -1.9645283e+02  -2.2959462e+02  -2.5459906e+02  -2.6346617e+02  -2.5389313e+02  -2.2731131e+02  -1.8867724e+02  -1.4504595e+02  -1.0598538e+02  -7.7911998e+01  -6.8439253e+01  -8.0828179e+01  -1.1361703e+02  -1.6048200e+02  -2.1335065e+02  -2.6475509e+02  -3.0938021e+02  -3.4473497e+02  -3.6785864e+02  -3.7496828e+02  -3.6496133e+02  -3.3970605e+02  -3.0008041e+02  -2.5375359e+02  -2.0473789e+02  -1.5476955e+02  -1.0659966e+02  -6.0287582e+01  -1.9589473e+01   9.4790322e+00   1.9849910e+01   8.3543149e+00  -2.4572460e+01  -6.8390907e+01  -1.1309370e+02  -1.4689161e+02  -1.6485655e+02  -1.6743521e+02  -1.5976496e+02  -1.4775069e+02  -1.3289385e+02  -1.1689897e+02  -9.9112395e+01  -8.2871581e+01  -6.9854751e+01  -6.6521283e+01  -7.3720226e+01  -8.9522329e+01  -1.0830018e+02  -1.2804745e+02  -1.4689561e+02  -1.6775971e+02  -1.8802651e+02  -2.0119281e+02  -1.9836714e+02  -1.7356648e+02  -1.2576622e+02  -6.0694697e+01   9.6024882e+00   7.6372615e+01   1.3186086e+02   1.7401853e+02   2.0012176e+02   2.0922028e+02   1.9935781e+02   1.7153651e+02   1.2943126e+02   8.0892862e+01   3.5307161e+01  -1.1044010e+00  -2.4949653e+01  -3.8208293e+01  -3.9581078e+01  -3.0601386e+01  -1.1496371e+01   1.5180623e+01   4.6094431e+01   7.6773250e+01   9.8265446e+01   1.0871776e+02   1.0579487e+02   8.9882939e+01   6.8048769e+01   4.3759347e+01   2.2400085e+01   9.6567555e+00   6.8453972e+00   1.5281955e+01   3.2778191e+01   5.9334026e+01   9.4070087e+01   1.3841229e+02   1.8950625e+02   2.4280866e+02   2.8977844e+02   3.2357737e+02   3.3868728e+02   3.3536280e+02   3.1585934e+02   2.8540611e+02   2.4692747e+02   2.0454950e+02   1.6095635e+02   1.1968130e+02   8.6425506e+01   6.9493270e+01   7.0416953e+01   8.8819452e+01   1.1752945e+02   1.4993177e+02   1.7950304e+02   2.0545878e+02   2.2542344e+02   2.4003216e+02   2.4838310e+02   2.4927942e+02   2.4022907e+02   2.2520353e+02   2.0518940e+02   1.8659522e+02   1.7559536e+02   1.7450172e+02   1.8525062e+02   2.0807604e+02   2.4241624e+02   2.8806838e+02   3.3857271e+02   3.8977677e+02   4.3050472e+02   4.5424351e+02   4.5575337e+02   4.3552106e+02   3.9699388e+02   3.4656211e+02   2.9029036e+02   2.3243199e+02   1.7878935e+02   1.3400302e+02   1.0486307e+02   9.4731428e+01   1.0615100e+02   1.3269094e+02   1.6904717e+02   2.0638254e+02   2.4085998e+02   2.7229592e+02   3.0184634e+02   3.3063359e+02   3.5623082e+02   3.7094045e+02   3.6983137e+02   3.5353195e+02   3.2380923e+02   2.9199396e+02   2.6733084e+02   2.5734465e+02   2.6430952e+02   2.8589523e+02   3.1603972e+02   3.4906663e+02   3.7903278e+02   4.0225966e+02   4.1697730e+02   4.2099331e+02   4.1229651e+02   3.8751186e+02   3.4714432e+02   2.9457575e+02   2.3581335e+02   1.7902025e+02   1.3288873e+02   9.9937600e+01   7.9825567e+01   6.8770563e+01   6.4151367e+01   6.7343303e+01   8.0809399e+01   1.0643435e+02   1.4505676e+02   1.9012884e+02   2.3141649e+02   2.5864754e+02   2.6602314e+02   2.5352629e+02   2.2698878e+02   1.9391027e+02   1.6205700e+02   1.3489616e+02   1.1294499e+02   9.6123532e+01   8.4199853e+01   7.8403326e+01   8.1258419e+01   9.1661329e+01   1.0918880e+02   1.2659623e+02   1.3743709e+02   1.3671795e+02   1.2049920e+02   9.2357958e+01   5.3648325e+01   1.0521409e+01  -3.6300516e+01  -8.1967496e+01  -1.2310617e+02  -1.5650525e+02  -1.7979176e+02  -1.8800804e+02  -1.8201274e+02  -1.6265145e+02  -1.3167369e+02  -9.5406100e+01  -5.5223957e+01  -1.6890177e+01   1.7152239e+01   4.4441658e+01   6.2027300e+01   6.6798487e+01   5.5572141e+01   3.0929407e+01  -7.1747392e+00  -4.9974184e+01  -9.1550426e+01  -1.2349753e+02  -1.4350438e+02  -1.5277589e+02  -1.5323789e+02  -1.4749963e+02  -1.3658089e+02  -1.2244258e+02  -1.0638656e+02  -9.5408147e+01  -9.3590644e+01  -1.0762660e+02  -1.3653206e+02  -1.7459503e+02  -2.1256675e+02  -2.4507188e+02  -2.6818303e+02  -2.8108350e+02  -2.8572900e+02  -2.8241867e+02  -2.6819797e+02  -2.4203772e+02  -2.0376285e+02  -1.5873862e+02  -1.1035323e+02  -6.4364119e+01  -2.3192534e+01   1.0741361e+01   3.2556215e+01   4.0250247e+01   2.6800828e+01  -8.9885024e+00  -6.3872634e+01  -1.2972890e+02  -1.9322484e+02  -2.4250118e+02  -2.7077935e+02  -2.7981383e+02  -2.7413083e+02  -2.6102387e+02  -2.4730958e+02  -2.3387947e+02  -2.2011073e+02  -2.0421777e+02  -1.8763428e+02  -1.7551052e+02  -1.7039517e+02  -1.7914596e+02  -1.9908085e+02  -2.2635058e+02  -2.5148124e+02  -2.6701331e+02  -2.6714963e+02  -2.5132349e+02  -2.2360790e+02  -1.8790884e+02  -1.4791352e+02  -1.0479812e+02  -5.9731231e+01  -1.2237318e+01   3.4496699e+01   7.6280632e+01   1.0445889e+02   1.1025591e+02   9.0883234e+01   4.5393630e+01  -1.5698508e+01  -8.0981136e+01  -1.3681840e+02  -1.7504630e+02  -1.9359894e+02  -1.9698423e+02  -1.9054773e+02  -1.7749244e+02  -1.6065445e+02  -1.3906728e+02  -1.1537558e+02  -9.2178740e+01  -7.6393939e+01  -7.1724772e+01  -7.8307256e+01  -9.4580275e+01  -1.1439683e+02  -1.3335982e+02  -1.4833518e+02  -1.5707113e+02  -1.5883794e+02  -1.5199929e+02  -1.3743593e+02  -1.1676172e+02  -9.2300595e+01  -6.3824992e+01  -3.5089189e+01  -5.2181179e+00   2.0966660e+01   3.6594561e+01   3.3279777e+01   7.4693043e+00  -4.1442919e+01  -1.0625234e+02  -1.7631463e+02  -2.4110338e+02  -2.9288237e+02  -3.3240517e+02  -3.5955048e+02  -3.7681128e+02  -3.8357440e+02  -3.8015535e+02  -3.6658579e+02  -3.4618357e+02  -3.2096401e+02  -2.9497196e+02  -2.7162405e+02  -2.5214868e+02  -2.3919765e+02  -2.3367971e+02  -2.3583602e+02  -2.4654502e+02  -2.6181266e+02  -2.7837957e+02  -2.9136058e+02  -2.9882808e+02  -2.9625819e+02  -2.8577810e+02  -2.6917916e+02  -2.4969326e+02  -2.3256159e+02  -2.1945354e+02  -2.1281468e+02  -2.1323191e+02  -2.2390283e+02  -2.4628248e+02  -2.8395719e+02  -3.3476493e+02  -3.9314911e+02  -4.4970082e+02  -4.9581974e+02  -5.2640735e+02  -5.3950187e+02  -5.3877157e+02  -5.2780201e+02  -5.1013929e+02  -4.8808468e+02  -4.5926748e+02  -4.2605355e+02  -3.8886704e+02  -3.5051523e+02  -3.1860487e+02  -2.9512546e+02  -2.8625353e+02  -2.9240047e+02  -3.1149493e+02  -3.4045921e+02  -3.7281258e+02  -4.0231875e+02  -4.2458831e+02  -4.3655411e+02  -4.3875476e+02  -4.3138817e+02  -4.1512813e+02  -3.9372971e+02  -3.7047765e+02  -3.5155413e+02  -3.4341264e+02  -3.5324510e+02  -3.8261620e+02  -4.3031715e+02  -4.9146121e+02  -5.5681079e+02  -6.1729477e+02  -6.6364833e+02  -6.8909133e+02  -6.8995513e+02  -6.6617426e+02  -6.1757710e+02  -5.4693596e+02  -4.5676882e+02  -3.4891775e+02  -2.2595865e+02  -9.1519256e+01   4.7405945e+01   1.7905439e+02   2.8833057e+02   3.6102190e+02   3.9176903e+02   3.8079685e+02   3.4044461e+02   2.8755928e+02   2.3683509e+02   1.9518801e+02   1.6324936e+02   1.3704533e+02   1.1890455e+02   1.1160362e+02   1.1972935e+02   1.3920601e+02   1.6291452e+02   1.7131694e+02   1.5000025e+02   8.8062826e+01  -1.2710116e+01  -1.4190843e+02  -2.8478929e+02  -4.3076203e+02  -5.6900076e+02  -6.9110306e+02  -7.8670556e+02  -8.4497299e+02  -8.5489348e+02  -8.1533857e+02  -7.2887730e+02  -6.1336714e+02  -4.8837345e+02  -3.7349278e+02  -2.8266815e+02  -2.2458542e+02  -1.9722938e+02  -1.9365719e+02  -2.0501785e+02  -2.2781397e+02  -2.5636995e+02  -2.9144403e+02  -3.2990235e+02  -3.6636583e+02  -3.9074478e+02  -3.9459157e+02  -3.7822668e+02  -3.4562355e+02  -3.1107115e+02  -2.8466210e+02  -2.7167830e+02  -2.6795897e+02  -2.6833865e+02  -2.6723191e+02  -2.6742253e+02  -2.7308559e+02  -2.8804034e+02  -3.1119907e+02  -3.3515137e+02  -3.4780337e+02  -3.4098456e+02  -3.1193823e+02  -2.6462705e+02  -2.0780997e+02  -1.4887736e+02  -9.3463579e+01  -4.4886449e+01  -1.4862537e+00   3.7048910e+01   6.7282727e+01   8.4475869e+01   8.3817711e+01   6.1413518e+01   2.1028438e+01  -2.8378528e+01  -7.6269466e+01  -1.1321084e+02  -1.3553583e+02  -1.4689944e+02  -1.4865466e+02  -1.4200233e+02  -1.2389745e+02  -9.0727231e+01  -4.3806622e+01   8.2390456e+00   5.3119852e+01   7.9467726e+01   8.4284429e+01   7.6191003e+01   6.4445845e+01   5.7730682e+01   5.7734785e+01   6.1595752e+01   6.5274443e+01   6.8950767e+01   7.7524454e+01   1.0029055e+02   1.3783610e+02   1.8717463e+02   2.3910226e+02   2.8372979e+02   3.1712020e+02   3.3694682e+02   3.4508410e+02   3.4305114e+02   3.3024750e+02   3.0494832e+02   2.6605738e+02   2.1664884e+02   1.6335678e+02   1.1469137e+02   7.8370841e+01   5.9755950e+01   6.2460174e+01   8.2185329e+01   1.1480285e+02   1.5366764e+02   1.9512173e+02   2.3711901e+02   2.7688726e+02   3.1353963e+02   3.4155385e+02   3.5605746e+02   3.5388228e+02   3.3738375e+02   3.1405189e+02   2.9496940e+02   2.8819237e+02   2.9413977e+02   3.1007662e+02   3.3076212e+02   3.5631228e+02   3.8729650e+02   4.2405621e+02   4.6520314e+02   5.0022972e+02   5.1714921e+02   5.0707793e+02   4.7267956e+02   4.2440943e+02   3.7552351e+02   3.3484814e+02   3.0433849e+02   2.7648229e+02   2.4762607e+02   2.1931180e+02   1.9771066e+02   1.9222834e+02   2.0933363e+02   2.4563234e+02   2.9017694e+02   3.3397047e+02   3.7059806e+02   3.9790287e+02   4.1961777e+02   4.3587018e+02   4.4749549e+02   4.5111947e+02   4.4300203e+02   4.2566604e+02   4.0236365e+02   3.7845462e+02   3.5978192e+02   3.5013015e+02   3.4884046e+02   3.5863434e+02   3.7566924e+02   3.9581842e+02   4.1313565e+02   4.2444068e+02   4.2494457e+02   4.1782854e+02   4.0269520e+02   3.8082938e+02   3.5123012e+02   3.1140690e+02   2.6396506e+02   2.1403338e+02   1.6960929e+02   1.4190805e+02   1.3480239e+02   1.4642784e+02   1.7000715e+02   2.0091793e+02   2.3499618e+02   2.7203660e+02   3.1342508e+02   3.5582078e+02   3.9279955e+02   4.1637498e+02   4.2133015e+02   4.0331825e+02   3.6872154e+02   3.2228888e+02   2.7160342e+02   2.2145215e+02   1.7718328e+02   1.4013727e+02   1.1322764e+02   9.7726441e+01   9.0281366e+01   8.9160435e+01   8.9688255e+01   8.9812896e+01   8.8724023e+01   8.3436294e+01   7.3256992e+01   5.1072086e+01   1.3410420e+01  -3.8724912e+01  -1.0123672e+02  -1.6147509e+02  -2.0786798e+02  -2.3255574e+02  -2.3394364e+02  -2.1709683e+02  -1.8992286e+02  -1.5511489e+02  -1.1386087e+02  -6.5354758e+01  -8.1725207e+00   4.9406191e+01   9.8042699e+01   1.2586602e+02   1.2881348e+02   1.1174100e+02   8.4289765e+01   5.7527900e+01   3.8415515e+01   2.6164533e+01   1.7578345e+01   9.4582043e+00   5.1541151e+00   1.0317807e+01   2.9888330e+01   6.3309221e+01   1.0294499e+02   1.3663811e+02   1.5432892e+02   1.5065250e+02   1.3243055e+02   1.0899017e+02   8.9266184e+01   7.7672546e+01   7.2760393e+01   6.5709358e+01   5.3721922e+01   3.5403526e+01   1.5214359e+01   2.0686849e+00   5.1384904e+00   2.6890659e+01   6.3355813e+01   1.0759549e+02   1.4730740e+02   1.7649017e+02   1.8907960e+02   1.8447312e+02   1.6387227e+02   1.2939799e+02   8.0962738e+01   2.3915891e+01  -4.1491693e+01  -1.0875350e+02  -1.7077972e+02  -2.2050830e+02  -2.5037551e+02  -2.5858622e+02  -2.4615004e+02  -2.1768191e+02  -1.8399629e+02  -1.5155155e+02  -1.2782124e+02  -1.1167764e+02  -1.0487138e+02  -1.0667651e+02  -1.1874846e+02  -1.4321255e+02  -1.7596943e+02  -2.0917437e+02  -2.3382349e+02  -2.4036516e+02  -2.2625176e+02  -1.9735443e+02  -1.6018223e+02  -1.2087378e+02  -8.3960003e+01  -4.6927693e+01  -1.1641593e+01   1.6299127e+01   2.9183557e+01   1.9707173e+01  -1.3684893e+01  -6.3677008e+01  -1.2120271e+02  -1.7779095e+02  -2.3009504e+02  -2.7753614e+02  -3.1997777e+02  -3.5334394e+02  -3.7410084e+02  -3.7753979e+02  -3.6282626e+02  -3.3380972e+02  -2.9762176e+02  -2.5811674e+02  -2.1923090e+02  -1.8234505e+02  -1.5273584e+02  -1.3318710e+02  -1.3181212e+02  -1.4910726e+02  -1.7922774e+02  -2.1244512e+02  -2.3872220e+02  -2.5332483e+02  -2.5538587e+02  -2.5034297e+02  -2.4318921e+02  -2.3250135e+02  -2.1724117e+02  -1.9435549e+02  -1.6922932e+02  -1.5006570e+02  -1.4527704e+02  -1.6097152e+02  -1.9660565e+02  -2.4285223e+02  -2.8970449e+02  -3.2880498e+02  -3.6095836e+02  -3.8876181e+02  -4.1827133e+02  -4.4861670e+02  -4.7648470e+02  -4.9040707e+02  -4.8281564e+02  -4.5085731e+02  -3.9699369e+02  -3.3543827e+02  -2.7750497e+02  -2.3595409e+02  -2.1342069e+02  -2.0699971e+02  -2.1104048e+02  -2.1717497e+02  -2.2457322e+02  -2.3238819e+02  -2.4332823e+02  -2.5727755e+02  -2.6987984e+02  -2.7600558e+02  -2.7003913e+02  -2.5094764e+02  -2.2512258e+02  -1.9801656e+02  -1.7962607e+02  -1.7289144e+02  -1.7909766e+02  -1.9735898e+02  -2.2225947e+02  -2.5170124e+02  -2.8198298e+02  -3.1010161e+02  -3.3923871e+02  -3.6736821e+02  -3.9290584e+02  -4.1131376e+02  -4.1557971e+02  -3.9950635e+02  -3.6177108e+02  -3.0574688e+02  -2.4210670e+02  -1.7726176e+02  -1.2070725e+02  -7.7359752e+01  -4.8972702e+01  -3.8705264e+01  -4.6899347e+01  -7.2092146e+01  -1.0826004e+02  -1.5025927e+02  -1.8940262e+02  -2.2409398e+02  -2.5343515e+02  -2.7972405e+02  -3.0177821e+02  -3.1704198e+02  -3.2246509e+02  -3.1717139e+02  -3.0596504e+02  -2.9674344e+02  -2.9989905e+02  -3.1779295e+02  -3.5037448e+02  -3.9199983e+02  -4.3447651e+02  -4.7532935e+02  -5.1225310e+02  -5.4269175e+02  -5.6446655e+02  -5.7336780e+02  -5.6562966e+02  -5.4022263e+02  -4.9892193e+02  -4.4714033e+02  -3.9354484e+02  -3.4250577e+02  -3.0244931e+02  -2.7319721e+02  -2.5538005e+02  -2.4999986e+02  -2.5719904e+02  -2.8026515e+02  -3.1786946e+02  -3.6850753e+02  -4.2608221e+02  -4.7955206e+02  -5.1955954e+02  -5.4295639e+02  -5.5215814e+02  -5.5328290e+02  -5.5105890e+02  -5.4751624e+02  -5.3650739e+02  -5.1312398e+02  -4.7909065e+02  -4.4221956e+02  -4.1800091e+02  -4.1738528e+02  -4.4278822e+02  -4.8331615e+02  -5.2518307e+02  -5.5226065e+02  -5.5968618e+02  -5.4644450e+02  -5.1884330e+02  -4.8081512e+02  -4.3500255e+02  -3.8561227e+02  -3.3305419e+02  -2.8541195e+02  -2.4681261e+02  -2.2377877e+02  -2.1564799e+02  -2.2213678e+02  -2.4010689e+02  -2.7056558e+02  -3.1190027e+02  -3.6231764e+02  -4.1742985e+02  -4.6691146e+02  -5.0414175e+02  -5.2274882e+02  -5.2398569e+02  -5.1389090e+02  -5.0021508e+02  -4.8612613e+02  -4.7173530e+02  -4.5450947e+02  -4.3465026e+02  -4.1352402e+02  -3.9721961e+02  -3.9029268e+02  -3.9173007e+02  -3.9613738e+02  -3.9012239e+02  -3.6282045e+02  -3.0848834e+02  -2.2908373e+02  -1.2874936e+02  -1.5134011e+01   1.0449578e+02   2.2837089e+02   3.4954806e+02   4.6040975e+02   5.5026903e+02   6.0899918e+02   6.2760318e+02   6.0764636e+02   5.5249237e+02   4.7430970e+02   3.8584506e+02   2.9799199e+02   2.2320965e+02   1.6786643e+02   1.3659407e+02   1.2673541e+02   1.3395749e+02   1.4907917e+02   1.6213451e+02   1.6366155e+02   1.4617697e+02   1.0577209e+02   3.9750753e+01  -4.7775900e+01  -1.5041623e+02  -2.5820782e+02  -3.5854691e+02  -4.3834390e+02  -4.8838140e+02  -5.0382315e+02  -4.8280266e+02  -4.3200946e+02  -3.5919134e+02  -2.7850324e+02  -2.0065354e+02  -1.3482734e+02  -8.2395871e+01  -4.5451527e+01  -1.8230763e+01  -2.5042693e+00   1.9828127e+00  -8.0572519e+00  -3.3211078e+01  -7.0344226e+01  -1.1481090e+02  -1.5686785e+02  -1.9224042e+02  -2.1876691e+02  -2.3603788e+02  -2.4294627e+02  -2.3907660e+02  -2.1888174e+02  -1.8162456e+02  -1.2609169e+02  -6.0117751e+01   1.0018063e+01   7.3243100e+01   1.2330557e+02   1.5527181e+02   1.6984301e+02   1.6745183e+02   1.5512929e+02   1.4016268e+02   1.2959339e+02   1.2862456e+02   1.3602001e+02   1.4657687e+02   1.5674347e+02   1.6243389e+02   1.6806416e+02   1.7880342e+02   2.0000551e+02   2.3076042e+02   2.6248934e+02   2.8250051e+02   2.8242823e+02   2.5949277e+02   2.2054345e+02   1.7887593e+02   1.4684584e+02   1.2932829e+02   1.2509431e+02   1.2718647e+02   1.2837694e+02   1.2978087e+02   1.3967715e+02   1.6856203e+02   2.2343006e+02   3.0124682e+02   3.9055266e+02   4.7411922e+02   5.3457360e+02   5.6490968e+02   5.6482062e+02   5.4781120e+02   5.2407709e+02   5.0416992e+02   4.9149443e+02   4.8070649e+02   4.6809333e+02   4.5301877e+02   4.3850717e+02   4.3202057e+02   4.4045677e+02   4.6336627e+02   4.9335629e+02   5.1862423e+02   5.2954624e+02   5.2523815e+02   5.1101077e+02   4.9465551e+02   4.8251979e+02   4.7636011e+02   4.6999128e+02   4.6077828e+02   4.4903848e+02   4.4043530e+02   4.4744555e+02   4.7597362e+02   5.2916671e+02   6.0145822e+02   6.8183638e+02   7.5830515e+02   8.1947840e+02   8.6223093e+02   8.8232137e+02   8.8390657e+02   8.7088004e+02   8.4899128e+02   8.2273079e+02   7.9699727e+02   7.7259114e+02   7.4760217e+02   7.1977202e+02   6.8991545e+02   6.6347552e+02   6.4726973e+02   6.4945833e+02   6.6973557e+02   7.0071543e+02   7.3345668e+02   7.5605388e+02   7.6321260e+02   7.5572934e+02   7.3781037e+02   7.1818566e+02   7.0000241e+02   6.8551294e+02   6.7359966e+02   6.6620274e+02   6.6472901e+02   6.6952430e+02   6.8148284e+02   7.0084899e+02   7.2824134e+02   7.6289887e+02   8.0511904e+02   8.5183165e+02   8.9423382e+02   9.2340257e+02   9.2880417e+02   9.0963251e+02   8.7193107e+02   8.2548168e+02   7.8147383e+02   7.4299729e+02   7.0742406e+02   6.6876000e+02   6.2305018e+02   5.7891484e+02   5.4827460e+02   5.4129909e+02   5.6258282e+02   6.0452206e+02   6.4983996e+02   6.8518782e+02   7.0274034e+02   7.0270467e+02   6.9367493e+02   6.8078555e+02   6.6664441e+02   6.5205663e+02   6.3557868e+02   6.1896542e+02   6.0558738e+02   5.9889962e+02   6.0303687e+02   6.1959212e+02   6.4761128e+02   6.8180698e+02   7.1396466e+02   7.3548807e+02   7.4101134e+02   7.2699597e+02   6.9723193e+02   6.5717467e+02   6.1507109e+02   5.7385545e+02   5.3182695e+02   4.8514910e+02   4.3323530e+02   3.7809971e+02   3.2775768e+02   2.9275301e+02   2.7787291e+02   2.8608687e+02   3.1271545e+02   3.4880526e+02   3.8465920e+02   4.1545060e+02   4.3483927e+02   4.4350854e+02   4.4455252e+02   4.4166415e+02   4.3710167e+02   4.3244086e+02   4.2514971e+02   4.1104580e+02   3.9071243e+02   3.6695462e+02   3.4437077e+02   3.3109941e+02   3.3077658e+02   3.4171064e+02   3.5825128e+02   3.7430286e+02   3.8091204e+02   3.7584961e+02   3.5610578e+02   3.2023053e+02   2.6947011e+02   2.0867856e+02   1.4201274e+02   7.8449036e+01   2.8183338e+01  -6.0079102e+00  -2.3361718e+01  -2.7600248e+01  -2.4217936e+01  -1.4546369e+01   1.4114648e+00   2.5356061e+01   5.8225928e+01   9.4821810e+01   1.2643910e+02   1.4742612e+02   1.5259607e+02   1.4444086e+02   1.2712101e+02   1.0523632e+02   8.3411312e+01   5.9753343e+01   3.6259033e+01   1.4249785e+01  -5.0863179e+00  -1.8984319e+01  -2.5185252e+01  -2.4801704e+01  -1.8985500e+01  -1.1444293e+01  -4.8742294e+00  -6.3879528e+00  -1.9017429e+01  -4.6361967e+01  -8.7431503e+01  -1.3670948e+02  -1.8642959e+02  -2.3003170e+02  -2.6273761e+02  -2.8517091e+02  -2.9893839e+02  -3.0309539e+02  -2.9543216e+02  -2.7354181e+02  -2.3465918e+02  -1.8229013e+02  -1.2267842e+02  -6.7179135e+01  