   3.0482889e+02   3.3978355e+02   3.7879669e+02   4.1737532e+02   4.4347026e+02   4.4954758e+02   4.3060759e+02   3.9215453e+02   3.4812460e+02   3.1178344e+02   2.9460591e+02   2.9615011e+02   3.0793677e+02   3.1634203e+02   3.1050886e+02   2.8527981e+02   2.5015207e+02   2.1825353e+02   2.0533983e+02   2.1781072e+02   2.5174592e+02   2.9195970e+02   3.2007406e+02   3.2760860e+02   3.1708400e+02   2.9913392e+02   2.8661780e+02   2.8372536e+02   2.8706241e+02   2.8570730e+02   2.7322965e+02   2.4766465e+02   2.1344204e+02   1.7827270e+02   1.4800156e+02   1.2444008e+02   1.0919469e+02   1.0150891e+02   1.0213661e+02   1.1026067e+02   1.2246701e+02   1.3377770e+02   1.4174073e+02   1.4756699e+02   1.5430049e+02   1.6500384e+02   1.7793972e+02   1.8873027e+02   1.9247839e+02   1.8784034e+02   1.7904402e+02   1.7285345e+02   1.7448528e+02   1.8448805e+02   1.9459714e+02   1.9658053e+02   1.8408915e+02   1.5952480e+02   1.3393492e+02   1.2094113e+02   1.2770429e+02   1.5292621e+02   1.8588546e+02   2.1350212e+02   2.2842604e+02   2.3514126e+02   2.4407987e+02   2.6473794e+02   2.9578689e+02   3.2917350e+02   3.5020186e+02   3.4959157e+02   3.2850705e+02   2.9955413e+02   2.7574223e+02   2.6541339e+02   2.6514108e+02   2.6660615e+02   2.6045834e+02   2.4417510e+02   2.2293004e+02   2.0348342e+02   1.9410631e+02   1.9954646e+02   2.1904107e+02   2.4637664e+02   2.7499133e+02   3.0011118e+02   3.1790737e+02   3.2665999e+02   3.2991257e+02   3.3160263e+02   3.3215582e+02   3.3153532e+02   3.2624204e+02   3.1626638e+02   2.9999698e+02   2.8209556e+02   2.6434971e+02   2.4751785e+02   2.2917955e+02   2.0560446e+02   1.7765018e+02   1.5169658e+02   1.3862096e+02   1.4781462e+02   1.8223842e+02   2.3051190e+02   2.7702854e+02   3.0408733e+02   3.0703082e+02   2.9337866e+02   2.7694667e+02   2.7094250e+02   2.7803053e+02   2.8936084e+02   2.9455958e+02   2.8568074e+02   2.6412236e+02   2.4051326e+02   2.2157891e+02   2.1099728e+02   2.0425666e+02   1.9652782e+02   1.8656175e+02   1.7862234e+02   1.7846079e+02   1.8833437e+02   2.0506883e+02   2.2215887e+02   2.3789829e+02   2.5252748e+02   2.7138550e+02   2.9605264e+02   3.2147109e+02   3.4003307e+02   3.4462921e+02   3.3265332e+02   3.0996434e+02   2.8280923e+02   2.5671484e+02   2.3235825e+02   2.0642714e+02   1.8148186e+02   1.5882968e+02   1.4642148e+02   1.4877759e+02   1.6694848e+02   1.9551221e+02   2.3160877e+02   2.7100797e+02   3.1320636e+02   3.5554561e+02   3.9434432e+02   4.2203342e+02   4.3328505e+02   4.2612482e+02   4.0301797e+02   3.7392170e+02   3.4529775e+02   3.2208305e+02   3.0361879e+02   2.8454248e+02   2.5965119e+02   2.3174697e+02   2.0447773e+02   1.8318865e+02   1.7179775e+02   1.6670878e+02   1.6577022e+02   1.6628528e+02   1.6907285e+02   1.8157397e+02   2.0899360e+02   2.4846403e+02   2.9121436e+02   3.2172899e+02   3.2788045e+02   3.0602390e+02   2.6504540e+02   2.1936045e+02   1.8486516e+02   1.6584610e+02   1.5985956e+02   1.5559236e+02   1.4271764e+02   1.1375829e+02   7.3969222e+01   3.1246256e+01  -1.9326126e+00  -1.9531876e+01  -1.9949492e+01  -4.9773485e+00   2.3264241e+01   6.0412393e+01   1.0196204e+02   1.4237463e+02   1.7018904e+02   1.7612884e+02   1.5619944e+02   1.2076910e+02   8.4627265e+01   6.6014973e+01   7.3622503e+01   9.8551547e+01   1.2224180e+02   1.2436451e+02   1.0068943e+02   5.9934562e+01   1.9611528e+01  -4.1187739e+00  -8.5652835e+00   1.4133261e+00   1.6378189e+01   3.4335311e+01   5.7815947e+01   8.8006441e+01   1.2091576e+02   1.4656415e+02   1.5517360e+02   1.4833975e+02   1.4016687e+02   1.4535124e+02   1.6920471e+02   1.9661628e+02   2.0695750e+02   1.8394234e+02   1.3145783e+02   7.1383810e+01   2.8420916e+01   1.4943901e+01   2.0893565e+01   2.7715550e+01   2.0347823e+01  -7.4619704e-01  -1.7506606e+01  -1.3178737e+01   1.3800934e+01   4.8923367e+01   7.0720167e+01   6.5864029e+01   4.3251768e+01   2.2067480e+01   2.0826025e+01   4.3397516e+01   7.5013878e+01   9.6258002e+01   9.4034830e+01   7.2523609e+01   4.4110269e+01   2.4300523e+01   1.3615585e+01   7.4757951e+00  -2.9206901e+00  -1.9713575e+01  -3.2478513e+01  -2.9295208e+01  -2.7739982e+00   4.2966983e+01   9.2377231e+01   1.3059898e+02   1.4863235e+02   1.4652532e+02   1.3056900e+02   1.1047648e+02   9.2524160e+01   8.0638053e+01   7.3413074e+01   6.9061474e+01   6.2294545e+01   4.8150449e+01   2.3787245e+01  -8.7353410e+00  -4.1660718e+01  -6.7704102e+01  -7.8166871e+01  -7.3986019e+01  -5.9715513e+01  -4.1445391e+01  -2.7671182e+01  -1.5131056e+01   1.3686119e+00   3.4120121e+01   8.9656488e+01   1.6885716e+02   2.6501120e+02   3.6583769e+02   4.6246878e+02   5.5640331e+02   6.5844115e+02   7.8460833e+02   9.4408026e+02   1.1271085e+03   1.3089531e+03   1.4548195e+03   1.5337982e+03   1.5348057e+03   1.4665241e+03   1.3513433e+03   1.2133100e+03   1.0610895e+03   8.9095172e+02   6.8778770e+02   4.4316375e+02   1.6141558e+02  -1.3522124e+02  -4.1345349e+02  -6.4175977e+02  -8.0022621e+02  -8.9040871e+02  -9.2424140e+02  -9.2100671e+02  -8.9237591e+02  -8.4252030e+02  -7.7028400e+02  -6.7440073e+02  -5.6473024e+02  -4.5348665e+02  -3.5543129e+02  -2.7600627e+02  -2.0939245e+02  -1.5048502e+02  -9.1789731e+01  -3.9253590e+01  -1.0510743e+00   1.4647249e+01   9.8960106e+00  -1.8393859e+00  -6.5525097e+00   4.3678673e+00   2.9132816e+01   5.3486317e+01   6.1590503e+01   4.6881562e+01   1.2916343e+01  -3.0771543e+01  -6.8791499e+01  -9.1983103e+01  -1.0146801e+02  -1.0266991e+02  -1.0231030e+02  -1.0638942e+02  -1.1716142e+02  -1.2811015e+02  -1.3292870e+02  -1.2450061e+02  -9.7878067e+01  -5.7249943e+01  -9.8924396e+00   2.9901981e+01   5.0918069e+01   4.6128329e+01   1.6810270e+01  -2.8344733e+01  -7.3148151e+01  -1.0287359e+02  -1.0827157e+02  -9.3646890e+01  -6.9996564e+01  -5.7198237e+01  -6.6229410e+01  -9.8392753e+01  -1.4151882e+02  -1.7611902e+02  -1.8646636e+02  -1.7059038e+02  -1.3118289e+02  -8.3424400e+01  -3.8750173e+01  -5.5849692e+00   1.2921365e+01   1.5124529e+01   2.0547437e+00  -2.2495719e+01  -5.3975017e+01  -8.5160749e+01  -1.1232099e+02  -1.3442367e+02  -1.5436598e+02  -1.7319400e+02  -1.8728700e+02  -1.9348711e+02  -1.8516424e+02  -1.6721652e+02  -1.4901468e+02  -1.4230620e+02  -1.5009837e+02  -1.6453970e+02  -1.7081551e+02  -1.5606819e+02  -1.1734542e+02  -6.8573393e+01  -2.7546538e+01  -1.1923516e+01  -2.3218504e+01  -4.9780889e+01  -7.6760735e+01  -9.1063411e+01  -9.3302927e+01  -9.0766720e+01  -9.5406733e+01  -1.1386923e+02  -1.4257105e+02  -1.7182255e+02  -1.9098881e+02  -1.9467228e+02  -1.8489416e+02  -1.6524795e+02  -1.4100061e+02  -1.1612090e+02  -9.2223792e+01  -6.9431002e+01  -4.8159838e+01  -2.5863419e+01  -1.7539194e+00   1.9455974e+01   3.2759273e+01   3.2980251e+01   1.5801691e+01  -1.6310719e+01  -5.3277725e+01  -8.6647611e+01  -1.0887728e+02  -1.2161707e+02  -1.2896278e+02  -1.3664453e+02  -1.4413117e+02  -1.4664199e+02  -1.3807000e+02  -1.1783318e+02  -9.1678690e+01  -6.6469622e+01  -4.5983869e+01  -2.8749787e+01  -1.1935312e+01   7.7030943e+00   2.6815148e+01   3.5407424e+01   2.7767707e+01   4.3820660e+00  -2.7138041e+01  -5.4106844e+01  -6.8789138e+01  -7.2402144e+01  -7.4104337e+01  -8.3985313e+01  -1.0307144e+02  -1.2835932e+02  -1.4588232e+02  -1.4880833e+02  -1.3355733e+02  -1.0892131e+02  -8.3163937e+01  -6.3077930e+01  -4.6981423e+01  -3.1642900e+01  -1.2134447e+01   1.1374654e+01   3.3861498e+01   4.9699390e+01   5.0879192e+01   3.6169298e+01   9.1874903e+00  -2.3630321e+01  -5.4165600e+01  -7.5843227e+01  -8.6920991e+01  -9.0805748e+01  -9.3354978e+01  -1.0112407e+02  -1.1552679e+02  -1.2788861e+02  -1.2638769e+02  -1.0389357e+02  -5.9727575e+01  -8.3793995e+00   3.1781593e+01   4.7761979e+01   3.6135502e+01   8.1496765e+00  -2.2259400e+01  -4.4536794e+01  -5.5644541e+01  -5.9236733e+01  -6.1844136e+01  -6.7040402e+01  -7.5568485e+01  -8.5415213e+01  -9.7832990e+01  -1.1231728e+02  -1.2755654e+02  -1.4337470e+02  -1.5268514e+02  -1.5547123e+02  -1.4879913e+02  -1.3586068e+02  -1.2003407e+02  -1.0394459e+02  -8.7504272e+01  -6.9911420e+01  -4.6596672e+01  -2.0112300e+01   5.0282689e+00   2.0541915e+01   1.6571462e+01  -9.1458737e+00  -5.3168135e+01  -1.0332066e+02  -1.4376429e+02  -1.6415953e+02  -1.6391104e+02  -1.5146428e+02  -1.4061562e+02  -1.3779380e+02  -1.4127252e+02  -1.3928239e+02  -1.2400401e+02  -9.3440149e+01  -6.0182770e+01  -3.8104950e+01  -3.5019448e+01  -4.7349633e+01  -6.0856442e+01  -6.1456456e+01  -4.7152275e+01  -2.7079823e+01  -1.4660716e+01  -1.8833396e+01  -3.5326735e+01  -4.9936011e+01  -5.3763381e+01  -4.7392685e+01  -4.0981175e+01  -4.6264898e+01  -6.7488396e+01  -9.3280421e+01  -1.0750412e+02  -1.0011073e+02  -7.3021879e+01  -4.2057058e+01  -2.2911528e+01  -2.7179101e+01  -4.8403710e+01  -7.1138563e+01  -7.9989608e+01  -6.8624070e+01  -4.2733073e+01  -1.3947853e+01   1.2788423e+00  -1.1944847e+00  -1.7078952e+01  -3.7577904e+01  -5.3375267e+01  -6.4704315e+01  -7.5498184e+01  -9.2609568e+01  -1.1807330e+02  -1.4137581e+02  -1.4769133e+02  -1.2304581e+02  -6.9378900e+01  -3.4871539e+00   4.8150567e+01   6.1646988e+01   3.6045605e+01  -1.2320292e+01  -5.3497436e+01  -6.5657558e+01  -4.4953005e+01  -1.1503249e+01   8.4864738e+00  -3.5085179e+00  -4.5647236e+01  -9.9074574e+01  -1.3526045e+02  -1.4028115e+02  -1.1200664e+02  -6.7174141e+01  -2.5344740e+01  -2.7581136e+00  -2.1142064e+00  -1.6319893e+01  -3.4240799e+01  -4.5494321e+01  -4.5310073e+01  -3.3470246e+01  -1.8327746e+01  -2.8860212e+00   7.0842652e+00   1.0922163e+01   1.0974820e+01   1.3538754e+01   1.8854011e+01   2.6149004e+01   3.1720955e+01   2.9028358e+01   1.3767635e+01  -1.1092332e+01  -3.8336853e+01  -6.0600530e+01  -7.0524118e+01  -6.5953106e+01  -4.7146798e+01  -2.0961431e+01   5.0290415e+00   2.7503240e+01   4.2469588e+01   5.3450334e+01   6.5753837e+01   8.3801685e+01   1.1046590e+02   1.4136717e+02   1.6808874e+02   1.8027088e+02   1.6956772e+02   1.3446800e+02   8.7001644e+01   3.9370692e+01   5.5557857e+00  -9.0479366e+00  -2.9148569e+00   1.4444933e+01   3.8458461e+01   6.2601233e+01   8.6627451e+01   1.0988223e+02   1.3264843e+02   1.5347775e+02   1.7046051e+02   1.8340033e+02   1.9387619e+02   2.0219327e+02   2.0624094e+02   2.0228970e+02   1.8876633e+02   1.6304609e+02   1.2929515e+02   9.1383335e+01   5.4873437e+01   2.2076970e+01  -6.8454299e+00  -3.4769314e+01  -6.2508921e+01  -8.4763797e+01  -9.7126149e+01  -9.5151321e+01  -8.0479698e+01  -6.0985274e+01  -4.4918201e+01  -3.3006771e+01  -2.2489289e+01  -3.0567539e+00   2.9296632e+01   6.8501895e+01   1.0069312e+02   1.0649356e+02   7.9264099e+01   2.1269926e+01  -4.9267648e+01  -1.1125183e+02  -1.5192034e+02  -1.7216157e+02  -1.7989593e+02  -1.8547001e+02  -1.9100729e+02  -1.9066394e+02  -1.7575135e+02  -1.4270594e+02  -9.7909219e+01  -5.5383256e+01  -2.5404756e+01  -1.1093068e+01  -4.0300089e+00   4.0359292e+00   2.1362840e+01   4.2246473e+01   5.7912186e+01   5.6290485e+01   3.3716084e+01  -4.4007501e+00  -4.6880072e+01  -8.5011795e+01  -1.1669882e+02  -1.4149153e+02  -1.6252071e+02  -1.7635211e+02  -1.7979815e+02  -1.6472651e+02  -1.2990319e+02  -7.7897420e+01  -1.8062148e+01   3.7413016e+01   7.9394865e+01   1.0367549e+02   1.1085247e+02   1.0425391e+02   8.8933653e+01   7.3747564e+01   6.2505137e+01   5.6174668e+01   5.1106629e+01   3.8233170e+01   1.3202306e+01  -2.4586938e+01  -6.4066564e+01  -9.3698626e+01  -1.0477001e+02  -9.8744546e+01  -8.4621597e+01  -7.3246036e+01  -6.9519310e+01  -6.8474182e+01  -6.0195389e+01  -3.6591303e+01   1.9552634e+00   4.5010004e+01   8.0524625e+01   1.0222647e+02   1.0990446e+02   1.0955104e+02   1.0234086e+02   8.8452032e+01   6.1758081e+01   2.1438260e+01  -2.6436063e+01  -7.0278866e+01  -9.9278527e+01  -1.0856162e+02  -1.0121548e+02  -8.0176093e+01  -5.3008856e+01  -1.9624194e+01   1.5021186e+01   4.7189208e+01   7.0551384e+01   7.8282130e+01   7.1049528e+01   5.4917398e+01   4.2188555e+01   3.9228093e+01   5.0307936e+01   6.9506807e+01   8.5687789e+01   9.2558184e+01   8.3798269e+01   5.9230808e+01   1.9992396e+01  -2.8334330e+01  -7.9663614e+01  -1.2344759e+02  -1.4582089e+02  -1.3583437e+02  -8.7745308e+01  -2.3179925e+00   1.0891669e+02   2.3349155e+02   3.5995969e+02   4.8699560e+02   6.2163563e+02   7.7663046e+02   9.5986201e+02   1.1657654e+03   1.3736934e+03   1.5461659e+03   1.6459668e+03   1.6500672e+03   1.5583852e+03   1.3974142e+03   1.1997724e+03   9.9573917e+02   7.9784260e+02   5.9655963e+02   3.7716631e+02   1.2875692e+02  -1.4157737e+02  -4.0944270e+02  -6.4176012e+02  -8.1036670e+02  -9.0565988e+02  -9.3333531e+02  -9.1325073e+02  -8.6442639e+02  -7.9917002e+02  -7.2129407e+02  -6.3137989e+02  -5.2903818e+02  -4.1911980e+02  -3.1384264e+02  -2.2481842e+02  -1.5998408e+02  -1.1846023e+02  -9.3374086e+01  -7.0690027e+01  -4.3089601e+01  -5.9318987e+00   3.5690450e+01   7.5804878e+01   1.0634587e+02   1.2391509e+02   1.3156219e+02   1.3163370e+02   1.2972809e+02   1.3177796e+02   1.4025876e+02   1.5550074e+02   1.7406090e+02   1.8709855e+02   1.8869376e+02   1.7505371e+02   1.4956749e+02   1.2169201e+02   1.0167805e+02   9.4170814e+01   9.5740239e+01   9.5408324e+01   8.6243034e+01   6.8078802e+01   4.9405551e+01   4.3442600e+01   5.8386231e+01   8.8793466e+01   1.2504471e+02   1.5181635e+02   1.5949496e+02   1.4847480e+02   1.2930011e+02   1.1463877e+02   1.1110046e+02   1.1893616e+02   1.2967235e+02   1.3374113e+02   1.2716429e+02   1.1033707e+02   9.1938209e+01   7.7969038e+01   6.9902199e+01   6.4902241e+01   5.6069130e+01   4.3654680e+01   3.1209135e+01   2.9631292e+01   4.4115360e+01   7.5009777e+01   1.1662087e+02   1.5700645e+02   1.8780785e+02   2.0516221e+02   2.0972298e+02   2.0279590e+02   1.8557541e+02   1.6244575e+02   1.3629571e+02   1.1279022e+02   9.6545153e+01   8.4165360e+01   7.3127591e+01   5.8514351e+01   4.1631307e+01   3.1561050e+01   3.4719551e+01   5.2484468e+01   7.8955277e+01   9.8886991e+01   1.0481326e+02   9.8345230e+01   9.3605532e+01   1.0573552e+02   1.3840200e+02   1.8222979e+02   2.1409734e+02   2.1825418e+02   1.9024577e+02   1.4166130e+02   9.4746481e+01   6.3942602e+01   5.3423455e+01   5.3698507e+01   5.3338452e+01   4.5856932e+01   3.5756491e+01   3.2719410e+01   4.3902270e+01   6.8277995e+01   9.5964479e+01   1.1648510e+02   1.2392121e+02   1.1993890e+02   1.0969599e+02   1.0165804e+02   9.9367607e+01   1.0521940e+02   1.2029076e+02   1.4126525e+02   1.6546808e+02   1.8500883e+02   1.9400532e+02   1.8584390e+02   1.6442297e+02   1.3332578e+02   1.0288010e+02   7.9080838e+01   6.5376028e+01   6.0342037e+01   6.3295469e+01   7.2903701e+01   8.7860067e+01   1.0768293e+02   1.2967979e+02   1.4909309e+02   1.6741479e+02   1.8682935e+02   2.1272248e+02   2.4418079e+02   2.7740690e+02   3.0298555e+02   3.1095869e+02   2.9669618e+02   2.5857965e+02   2.0354628e+02   1.4256005e+02   8.7088958e+01   4.7664581e+01   3.0586812e+01   3.8812907e+01   6.7040398e+01   1.0496393e+02   1.4165894e+02   1.6902763e+02   1.8523521e+02   1.9106967e+02   1.9217374e+02   1.9312141e+02   1.9533896e+02   1.9789661e+02   2.0121770e+02   2.0076426e+02   1.9575894e+02   1.8699335e+02   1.7975435e+02   1.7887584e+02   1.8489891e+02   1.9330218e+02   1.9274987e+02   1.7130195e+02   1.2753754e+02   6.9558523e+01   1.7864403e+01  -5.8860689e+00   8.8127472e+00   5.3982970e+01   1.1087749e+02   1.5479700e+02   1.7605340e+02   1.7909849e+02   1.7680998e+02   1.8589875e+02   2.0837795e+02   2.3402236e+02   2.4574310e+02   2.3081426e+02   1.8790877e+02   1.2693042e+02   6.7660477e+01   2.3267204e+01   1.7493306e+00  -2.6048243e+00   4.3385047e+00   1.5276806e+01   2.7393757e+01   4.3495603e+01   6.9338660e+01   1.0509584e+02   1.4789023e+02   1.8931410e+02   2.2085679e+02   2.3318104e+02   2.2421303e+02   1.9704232e+02   1.6165811e+02   1.2757326e+02   1.0340366e+02   9.1474105e+01   8.9513842e+01   9.4486375e+01   1.0157202e+02   1.0629421e+02   1.0675479e+02   9.9924960e+01   8.6930899e+01   7.0275302e+01   5.5951208e+01   4.9425533e+01   5.4496780e+01   7.1056154e+01   9.6801615e+01   1.2696494e+02   1.5711156e+02   1.8306091e+02   1.9995438e+02   2.0547037e+02   1.9915866e+02   1.8484235e+02   1.6901981e+02   1.5819560e+02   1.4907706e+02   1.3759390e+02   1.1372483e+02   7.5148108e+01   3.1761639e+01  -3.8576232e+00  -1.5973123e+01   8.9417091e-01   3.8718293e+01   8.0932641e+01   1.1661575e+02   1.4087360e+02   1.5736309e+02   1.6987917e+02   1.7891815e+02   1.8013406e+02   1.6962149e+02   1.4798650e+02   1.2620027e+02   1.1226359e+02   1.0873997e+02   1.1023303e+02   1.0489054e+02   8.7010095e+01   5.8801612e+01   3.6334815e+01   3.1667288e+01   4.6120226e+01   7.1644801e+01   9.3209900e+01   1.0114147e+02   9.6356052e+01   9.0452427e+01   9.3653623e+01   1.0961965e+02   1.3217554e+02   1.4801456e+02   1.5144071e+02   1.4420595e+02   1.3647986e+02   1.3796305e+02   1.5012762e+02   1.6754224e+02   1.7622077e+02   1.6892625e+02   1.3936630e+02   9.7233866e+01   5.5071809e+01   2.8972117e+01   2.9149178e+01   5.3451770e+01   8.8892045e+01   1.1827079e+02   1.2496577e+02   1.1092590e+02   9.0881637e+01   8.7747680e+01   1.1716238e+02   1.7408501e+02   2.3536136e+02   2.7217133e+02   2.6728935e+02   2.2211705e+02   1.5748291e+02   1.0123974e+02   6.7721781e+01   5.8145130e+01   5.9041696e+01   5.7811109e+01   4.8453826e+01   3.3519463e+01   2.1269265e+01   2.0017857e+01   3.2592221e+01   6.2829456e+01   1.0603143e+02   1.5730612e+02   2.0174658e+02   2.2742944e+02   2.2524580e+02   2.0160668e+02   1.7008510e+02   1.5006613e+02   1.5247155e+02   1.7360979e+02   1.9917662e+02   2.1240189e+02   2.0730949e+02   1.9203529e+02   1.7913567e+02   1.7982070e+02   1.9405829e+02   2.1151998e+02   2.2436785e+02   2.2691247e+02   2.2119839e+02   2.1358920e+02   2.1042916e+02   2.1484794e+02   2.2675381e+02   2.4602960e+02   2.7191168e+02   3.0350010e+02   3.3332413e+02   3.5587494e+02   3.6201895e+02   3.5022298e+02   3.2254909e+02   2.8341389e+02   2.3914410e+02   1.9539208e+02   1.5549867e+02   1.2489888e+02   1.0865983e+02   1.0821949e+02   1.2036360e+02   1.3944054e+02   1.6277669e+02   1.8922471e+02   2.2075745e+02   2.5401552e+02   2.8072665e+02   2.8493780e+02   2.5603355e+02   1.9454931e+02   1.2182154e+02   6.4541689e+01   4.6294757e+01   6.8161099e+01   1.0744668e+02   1.3758087e+02   1.3518881e+02   1.0431441e+02   6.1741710e+01   3.2347027e+01   2.8409083e+01   4.3814277e+01   6.2114905e+01   6.6426714e+01   5.3183926e+01   2.8797732e+01   7.2850533e+00   9.4191410e-01   1.2130355e+01   4.0229368e+01   7.6771384e+01   1.1575337e+02   1.4707833e+02   1.6305828e+02   1.5889459e+02   1.3505178e+02   9.9455161e+01   5.8469195e+01   2.1648880e+01  -6.7068558e+00  -2.6136774e+01  -3.4647481e+01  -3.2295578e+01  -1.8630362e+01   2.0735421e+00   2.5832560e+01   4.8219308e+01   6.5837612e+01   8.2935597e+01   1.0606340e+02   1.3467597e+02   1.6459129e+02   1.8523743e+02   1.8865705e+02   1.7427583e+02   1.4947896e+02   1.2306876e+02   9.8693309e+01   7.6337345e+01   5.0953049e+01   2.0282272e+01  -1.1112376e+01  -3.7626196e+01  -5.4250652e+01  -5.9143583e+01  -5.5212459e+01  -4.2786043e+01  -2.0431241e+01   1.3057116e+01   5.4498904e+01   9.2040823e+01   1.1479984e+02   1.1651218e+02   1.0426176e+02   9.5346552e+01   1.0631625e+02   1.4418186e+02   1.9676479e+02   2.3812518e+02   2.4599152e+02   2.1110963e+02   1.4343991e+02   6.8156212e+01   9.4324246e+00  -1.6959997e+01  -1.6186763e+01   6.4816244e-02   1.5045141e+01   2.1536267e+01   2.5651590e+01   3.9881235e+01   7.6384870e+01   1.3449315e+02   2.0434554e+02   2.6356858e+02   2.9389167e+02   2.8760570e+02   2.5179435e+02   2.0130337e+02   1.5445450e+02   1.1755010e+02   9.3247551e+01   7.3900672e+01   5.5969974e+01   3.8589097e+01   2.2348970e+01   1.3324171e+01   1.2326258e+01   2.2333233e+01   4.9016696e+01   9.4275548e+01   1.6068802e+02   2.4481074e+02   3.3628344e+02   4.2373307e+02   5.0250677e+02   5.7529281e+02   6.5770682e+02   7.6792466e+02   9.1843260e+02   1.1049419e+03   1.3114831e+03   1.5056593e+03   1.6530098e+03   1.7264087e+03   1.7144205e+03   1.6225356e+03   1.4712333e+03   1.2838482e+03   1.0782528e+03   8.6040353e+02   6.2682512e+02   3.7312197e+02   1.0560493e+02  -1.5789400e+02  -3.8897619e+02  -5.6539481e+02  -6.7157105e+02  -7.1497807e+02  -7.1248543e+02  -6.8276776e+02  -6.3687272e+02  -5.7802039e+02  -5.0367042e+02  -4.1485113e+02  -3.2170321e+02  -2.3815633e+02  -1.7463602e+02  -1.3069326e+02  -9.2461702e+01  -4.4875534e+01   2.3381384e+01   1.0818103e+02   1.9345811e+02   2.6283379e+02   3.0325542e+02   3.1455197e+02   3.0682128e+02   2.9159594e+02   2.7577246e+02   2.6132867e+02   2.4488828e+02   2.2521539e+02   2.0173015e+02   1.7512972e+02   1.5117662e+02   1.3568424e+02   1.3269246e+02   1.4379136e+02   1.6452427e+02   1.8178754e+02   1.8714600e+02   1.7699900e+02   1.5956088e+02   1.4865489e+02   1.5635524e+02   1.8254279e+02   2.1545770e+02   2.3833634e+02   2.3920737e+02   2.2489586e+02   2.1124823e+02   2.1355234e+02   2.3809107e+02   2.7474140e+02   3.0051978e+02   2.9997945e+02   2.6738627e+02   2.1063463e+02   1.5290654e+02   1.0911881e+02   8.9239760e+01   8.6578605e+01   9.0157939e+01   8.9267288e+01   8.4268568e+01   8.8684442e+01   1.1355651e+02   1.6401780e+02   2.2799021e+02   2.8189937e+02   3.0629699e+02   2.9329760e+02   2.5676755e+02   2.1924480e+02   1.9961192e+02   1.9858355e+02   2.0109778e+02   1.9271357e+02   1.6611102e+02   1.2977134e+02   1.0187963e+02   9.3454110e+01   1.0166668e+02   1.1528709e+02   1.2216348e+02   1.2164886e+02   1.1989481e+02   1.2696169e+02   1.4472859e+02   1.6262552e+02   1.7024331e+02   1.6290006e+02   1.4925205e+02   1.4802931e+02   1.6995427e+02   2.1386845e+02   2.6305338e+02   2.9769514e+02   3.0341300e+02   2.8275768e+02   2.4858610e+02   2.1323773e+02   1.8546962e+02   1.5914692e+02   1.2672855e+02   8.6623187e+01   4.6515726e+01   2.1772903e+01   2.5026705e+01   5.8008223e+01   1.0866544e+02   1.6255347e+02   2.0444132e+02   2.3104473e+02   2.4977282e+02   2.6937406e+02   2.9138266e+02   3.1129816e+02   3.1647303e+02   2.9772990e+02   2.5477193e+02   2.0148190e+02   1.5422107e+02   1.2723689e+02   1.2526834e+02   1.4040269e+02   1.6019597e+02   1.7302484e+02   1.7660112e+02   1.7755510e+02   1.8498622e+02   2.0188863e+02   2.2838497e+02   2.5673691e+02   2.7814254e+02   2.8936832e+02   2.9129201e+02   2.8944829e+02   2.8666568e+02   2.8386603e+02   2.7906572e+02   2.6957979e+02   2.5639102e+02   2.4461423e+02   2.3796607e+02   2.3514776e+02   2.3206119e+02   2.2180746e+02   2.0145509e+02   1.7660652e+02   1.5382917e+02   1.4104475e+02   1.4198102e+02   1.5178440e+02   1.6486733e+02   1.8002767e+02   1.9983242e+02   2.2921405e+02   2.6919124e+02   3.1160289e+02   3.4273974e+02   3.5177209e+02   3.3490318e+02   2.9922080e+02   2.5526748e+02   2.1639456e+02   1.8199938e+02   1.5176399e+02   1.2201134e+02   9.8276794e+01   8.8156074e+01   1.0344700e+02   1.4455449e+02   2.0108749e+02   2.5754729e+02   2.9499417e+02   3.0758744e+02   2.9791678e+02   2.7808136e+02   2.5551657e+02   2.3161117e+02   2.0519180e+02   1.7297208e+02   1.3906656e+02   1.1065414e+02   9.7847339e+01   1.0578344e+02   1.2891319e+02   1.5442580e+02   1.6772408e+02   1.5785435e+02   1.2280423e+02   6.9605884e+01   1.2218217e+01  -3.4796787e+01  -6.0749405e+01  -6.2364683e+01  -4.3292351e+01  -9.4865953e+00   3.3621888e+01   8.4205067e+01   1.3736838e+02   1.8868986e+02   2.2588582e+02   2.3849716e+02   2.2048245e+02   1.7661611e+02   1.2161924e+02   7.3992585e+01   4.3569583e+01   3.2853048e+01   3.4235160e+01   3.8220821e+01   4.2775057e+01   5.1896201e+01   7.2481520e+01   1.0850530e+02   1.5548010e+02   2.0212697e+02   2.3814838e+02   2.5698196e+02   2.5641919e+02   2.4299636e+02   2.2410387e+02   2.0880717e+02   2.0341894e+02   2.0790221e+02   2.1720904e+02   2.1866655e+02   2.0351061e+02   1.6763829e+02   1.2161029e+02   8.2890085e+01   6.9265046e+01   8.4364197e+01   1.1717248e+02   1.4544406e+02   1.5293825e+02   1.3643504e+02   1.0952992e+02   9.2248640e+01   1.0055747e+02   1.3386479e+02   1.7961322e+02   2.1904598e+02   2.4020133e+02   2.4314704e+02   2.3342368e+02   2.2162603e+02   2.1002370e+02   1.9711195e+02   1.7899100e+02   1.5249855e+02   1.2006003e+02   8.5268097e+01   5.6249489e+01   3.8914479e+01   3.6206888e+01   4.4475481e+01   6.3070812e+01   9.3236397e+01   1.3531742e+02   1.9025903e+02   2.5431982e+02   3.1489090e+02   3.5729449e+02   3.6743831e+02   3.4422633e+02   2.9666478e+02   2.4365228e+02   1.9849283e+02   1.6621454e+02   1.4180580e+02   1.1749186e+02   9.2164706e+01   7.3051072e+01   6.8661868e+01   8.3018653e+01   1.1310646e+02   1.4646583e+02   1.7381655e+02   1.9160308e+02   2.0536978e+02   2.1890638e+02   2.3114773e+02   2.3885605e+02   2.3515333e+02   2.2299803e+02   2.1370879e+02   2.1462879e+02   2.2999799e+02   2.5106065e+02   2.6439248e+02   2.5938857e+02   2.3682317e+02   2.0637511e+02   1.7701718e+02   1.5618889e+02   1.4270856e+02   1.3042652e+02   1.1866713e+02   1.0754634e+02   1.0127703e+02   1.0458014e+02   1.1930579e+02   1.4333661e+02   1.7880046e+02   2.2456840e+02   2.7796708e+02   3.3059723e+02   3.6913121e+02   3.8196354e+02   3.6361036e+02   3.2079325e+02   2.6619266e+02   2.1590915e+02   1.8171665e+02   1.6622531e+02   1.6708455e+02   1.7634896e+02   1.9110242e+02   2.1139250e+02   2.3847632e+02   2.7432928e+02   3.1632606e+02   3.5397792e+02   3.8060501e+02   3.8883573e+02   3.8185913e+02   3.6839933e+02   3.5843012e+02   3.5769225e+02   3.6510801e+02   3.7120338e+02   3.7064327e+02   3.6196216e+02   3.5253541e+02   3.4879060e+02   3.5461460e+02   3.6287488e+02   3.6395251e+02   3.4718148e+02   3.1210505e+02   2.6749327e+02   2.2810907e+02   2.0325696e+02   1.9418988e+02   1.9347796e+02   1.9245354e+02   1.8883741e+02   1.8762219e+02   1.9924731e+02   2.3004970e+02   2.7292651e+02   3.1310828e+02   3.2891812e+02   3.0839218e+02   2.4965500e+02   1.6798287e+02   8.7536192e+01   2.7796858e+01   7.9412650e-01   3.2376900e+00   2.5692748e+01   5.5925285e+01   8.4519417e+01   1.0982469e+02   1.2823850e+02   1.4177576e+02   1.5083200e+02   1.5601684e+02   1.6492600e+02   1.7973149e+02   2.0050309e+02   2.2021932e+02   2.2647838e+02   2.1096871e+02   1.7279683e+02   1.2479096e+02   8.2899255e+01   6.0781293e+01   5.9655021e+01   7.2414626e+01   8.5986090e+01   9.3845797e+01   9.4599424e+01   9.4509730e+01   9.9872694e+01   1.0917086e+02   1.1697488e+02   1.1561101e+02   1.0365691e+02   8.4360633e+01   6.9094401e+01   6.7949961e+01   8.5559591e+01   1.2018721e+02   1.6008612e+02   1.9507188e+02   2.1221758e+02   2.0555470e+02   1.7765691e+02   1.3600012e+02   9.1027729e+01   5.4896923e+01   2.8935626e+01   1.2889053e+01   1.0710513e+00  -8.4453470e+00  -1.2468256e+01  -6.0530461e+00   1.6468027e+01   5.5800961e+01   1.0330335e+02   1.4880134e+02   1.8148258e+02   1.9672617e+02   1.9874114e+02   1.9291665e+02   1.8483480e+02   1.7395106e+02   1.5800145e+02   1.3223764e+02   9.6617392e+01   5.5081273e+01   1.6029357e+01  -8.9251367e+00  -1.3896850e+01  -3.8734610e-01   2.4266694e+01   4.7551287e+01   5.8419077e+01   5.5805381e+01   4.6928149e+01   4.0324807e+01   4.4627815e+01   6.2128186e+01   8.5214940e+01   1.0480076e+02   1.1584598e+02   1.1607504e+02   1.1094438e+02   1.0987381e+02   1.2070487e+02   1.4330642e+02   1.7421836e+02   1.9921396e+02   2.0467295e+02   1.8068710e+02   1.2986623e+02   6.1863137e+01  -3.3124927e+00  -4.6083833e+01  -5.9070387e+01  -4.7696002e+01  -2.3534761e+01   6.7094040e-01   2.4333340e+01   5.7640164e+01   1.1738118e+02   2.1285299e+02   3.3270050e+02   4.5356244e+02   5.4841850e+02   6.0658318e+02   6.4234811e+02   6.8833036e+02   7.7663162e+02   9.2394201e+02   1.1147295e+03   1.3136411e+03   1.4782027e+03   1.5768586e+03   1.6003311e+03   1.5572317e+03   1.4658152e+03   1.3397473e+03   1.1857574e+03   1.0030729e+03   7.8857044e+02   5.4163141e+02   2.6373889e+02  -3.2099174e+01  -3.2599066e+02  -5.8374233e+02  -7.7327880e+02  -8.7382116e+02  -8.8179517e+02  -8.2248923e+02  -7.3152819e+02  -6.4226503e+02  -5.7020769e+02  -5.1359372e+02  -4.5719997e+02  -3.8743244e+02  -3.0269113e+02  -2.0995415e+02  -1.2248402e+02  -4.5533472e+01   1.9075124e+01   7.2605738e+01   1.1737091e+02   1.5302070e+02   1.8112353e+02   2.0395316e+02   2.2435923e+02   2.3858129e+02   2.4087293e+02   2.1983018e+02   1.7236577e+02   1.0632671e+02   3.9810780e+01  -6.7133393e+00  -2.3345467e+01  -1.0605839e+01   1.7932954e+01   4.7331340e+01   7.0330706e+01   8.6750989e+01   1.0116907e+02   1.1776502e+02   1.4019813e+02   1.6537274e+02   1.9297520e+02   2.1770322e+02   2.3116256e+02   2.2346146e+02   1.8858325e+02   1.3165258e+02   7.0225158e+01   2.6723203e+01   1.4109669e+01   3.3850015e+01   6.8157326e+01   9.6466449e+01   1.0504149e+02   9.7598521e+01   8.6823717e+01   8.1687332e+01   8.3492392e+01   8.2645684e+01   6.8190792e+01   4.3187576e+01   2.1052392e+01   2.1983748e+01   5.5585165e+01   1.1276474e+02   1.7494304e+02   2.2054622e+02   2.4171043e+02   2.4208305e+02   2.3058652e+02   2.1301225e+02   1.8533718e+02   1.4169962e+02   8.1025943e+01   1.0358321e+01  -5.5016025e+01  -1.0049872e+02  -1.1902916e+02  -1.1071217e+02  -8.0122483e+01  -3.2235318e+01   2.9007420e+01   1.0042771e+02   1.6952318e+02   2.2341662e+02   2.4769391e+02   2.3700119e+02   1.9431177e+02   1.3382875e+02   7.6548053e+01   3.6561726e+01   1.8222116e+01   1.8306912e+01   2.5321267e+01   2.8046756e+01   2.3401915e+01   1.4624493e+01   1.1730235e+01   1.7156352e+01   3.0468747e+01   4.5003233e+01   5.3326571e+01   5.7437702e+01   6.1677966e+01   7.4373423e+01   9.7280867e+01   1.2294573e+02   1.3909614e+02   1.3919124e+02   1.2621449e+02   1.1175784e+02   1.1039073e+02   1.2725389e+02   1.5377638e+02   1.7438810e+02   1.7309729e+02   1.4282228e+02   9.0406979e+01   3.0302577e+01  -2.3044186e+01  -5.6004128e+01  -6.4651136e+01  -5.1574737e+01  -2.2483219e+01   1.4507693e+01   5.4956041e+01   9.7540024e+01   1.4280538e+02   1.9109960e+02   2.3654732e+02   2.6691355e+02   2.7021902e+02   2.4201093e+02   1.9324867e+02   1.4682514e+02   1.2080348e+02   1.2349370e+02   1.4451761e+02   1.6001031e+02   1.5508133e+02   1.2761342e+02   9.2420136e+01   7.3724065e+01   8.7864786e+01   1.3111051e+02   1.8643340e+02   2.3011813e+02   2.4610644e+02   2.3202825e+02   1.9992668e+02   1.6873766e+02   1.5362808e+02   1.6131869e+02   1.8451966e+02   2.1058364e+02   2.2444043e+02   2.1682532e+02   1.9175794e+02   1.6018231e+02   1.3964760e+02   1.3789939e+02   1.5226632e+02   1.7076062e+02   1.7486245e+02   1.5701379e+02   1.2090065e+02   8.5643188e+01   6.7032570e+01   7.7950946e+01   1.1608189e+02   1.6997341e+02   2.2445599e+02   2.6935918e+02   2.9741770e+02   3.0822519e+02   3.0008161e+02   2.7559626e+02   2.3594498e+02   1.8673626e+02   1.3650284e+02   9.2896859e+01   6.0714264e+01   3.8901822e+01   2.6702754e+01   2.0073359e+01   1.5458853e+01   1.3957807e+01   2.1840983e+01   4.4334181e+01   8.3533237e+01   1.3330061e+02   1.8199961e+02   2.0995232e+02   2.0755695e+02   1.7205799e+02   1.2002250e+02   7.3623421e+01   5.0861799e+01   5.6866658e+01   8.1393718e+01   1.0560624e+02   1.1116872e+02   9.4627525e+01   6.5000111e+01   3.6458177e+01   2.2973060e+01   2.2799126e+01   2.7701183e+01   2.5877972e+01   7.5902366e+00  -2.3443412e+01  -5.5775869e+01  -7.3953225e+01  -6.5094095e+01  -2.6213891e+01   3.5776371e+01   1.0641112e+02   1.6830613e+02   2.0899134e+02   2.2380534e+02   2.1470197e+02   1.9183003e+02   1.6178171e+02   1.2845862e+02   9.1566387e+01   5.0810646e+01   6.9174392e+00  -3.3368270e+01  -5.9147199e+01  -6.2955170e+01  -4.1982769e+01   1.0992595e-01   5.4753530e+01   1.1331421e+02   1.6908764e+02   2.1428364e+02   2.4284673e+02   2.5098601e+02   2.3933747e+02   2.1174277e+02   1.7869175e+02   1.4952991e+02   1.2856876e+02   1.1424920e+02   1.0349547e+02   9.1360517e+01   8.0011855e+01   7.4045998e+01   7.7063735e+01   8.9393752e+01   1.0482888e+02   1.1623973e+02   1.1795502e+02   1.1084182e+02   9.9074867e+01   8.6640978e+01   8.0674098e+01   8.5747334e+01   1.0525803e+02   1.3702569e+02   1.7418570e+02   2.0840867e+02   2.2841632e+02   2.2771052e+02   2.1039061e+02   1.8491525e+02   1.5767014e+02   1.3323353e+02   1.0527980e+02   6.8123573e+01   1.8967120e+01  -3.5033033e+01  -7.8731553e+01  -9.8833737e+01  -8.8468478e+01  -5.0395764e+01   7.1919680e+00   7.0249231e+01   1.3175042e+02   1.8371998e+02   2.2425842e+02   2.4940204e+02   2.5768203e+02   2.5029689e+02   2.2887506e+02   1.9387102e+02   1.4869699e+02   9.6732892e+01   4.1375680e+01  -8.7212162e+00  -4.3101720e+01  -5.4590616e+01  -4.2006219e+01  -1.0563569e+01   2.9920097e+01   7.1875407e+01   1.0973850e+02   1.4248854e+02   1.6587887e+02   1.7533182e+02   1.6252732e+02   1.2777002e+02   8.3257613e+01   4.9389716e+01   4.5247792e+01   8.0344725e+01   1.4169240e+02   2.0017758e+02   2.2817875e+02   2.1131111e+02   1.6016177e+02   9.7875758e+01   5.1478095e+01   3.4861823e+01   4.4430164e+01   5.9442356e+01   6.5166991e+01   5.7982678e+01   4.7580211e+01   5.4406909e+01   9.1456334e+01   1.5745106e+02   2.3740088e+02   3.0645548e+02   3.4892042e+02   3.5927506e+02   3.4502927e+02   3.1927917e+02   2.9187033e+02   2.6213950e+02   2.2527441e+02   1.7839217e+02   1.2248277e+02   6.8384856e+01   2.7954755e+01   1.2557228e+01   2.5952526e+01   6.4589209e+01   1.1824582e+02   1.7190890e+02   2.1373816e+02   2.3195886e+02   2.2453763e+02   2.0053750e+02   1.7410497e+02   1.5510592e+02   1.4948657e+02   1.4748144e+02   1.3481389e+02   1.0503259e+02   6.2099453e+01   2.6298248e+01   1.6472933e+01   3.9545907e+01   8.3214747e+01   1.2069402e+02   1.2736017e+02   9.3174734e+01   3.1800878e+01  -3.0616140e+01  -6.7972558e+01  -7.1945445e+01  -4.8817840e+01  -1.8241548e+01   6.2040842e+00   2.0765967e+01   3.2640847e+01   5.3462432e+01   8.6082553e+01   1.2552452e+02   1.5795349e+02   1.6950227e+02   1.5281098e+02   1.0918394e+02   4.8328697e+01  -1.7289414e+01  -7.4380280e+01  -1.1690447e+02  -1.3712122e+02  -1.3244305e+02  -1.0396087e+02  -5.7557246e+01  -3.5917008e+00   4.5788859e+01   8.0601262e+01   9.9084450e+01   1.0869521e+02   1.1788416e+02   1.2753355e+02   1.3399624e+02   1.2674144e+02   9.7678483e+01   4.8281083e+01  -6.3350137e+00  -5.1224243e+01  -7.1179055e+01  -6.5965399e+01  -4.6196859e+01  -2.4883007e+01  -1.2744078e+01  -1.1423501e+01  -1.6746024e+01  -2.4158440e+01  -2.8455113e+01  -3.0837964e+01  -2.9298358e+01  -2.7249940e+01  -2.4293644e+01  -2.2971669e+01  -2.6366380e+01  -3.1426530e+01  -3.4950761e+01  -2.8218440e+01  -2.3219568e+00   3.7690736e+01   8.1718166e+01   1.0739370e+02   1.0061850e+02   5.6736284e+01  -9.6930996e+00  -7.7497725e+01  -1.2178640e+02  -1.3299158e+02  -1.2089477e+02  -9.9467199e+01  -8.2386259e+01  -7.3139231e+01  -5.8692263e+01  -2.5773517e+01   3.2118508e+01   1.0382488e+02   1.6857920e+02   2.0783743e+02   2.1275554e+02   1.9324400e+02   1.6459666e+02   1.4276191e+02   1.3037976e+02   1.2074567e+02   1.0686992e+02   9.0782328e+01   7.8187423e+01   8.0515376e+01   9.8345001e+01   1.2711420e+02   1.5498533e+02   1.7371036e+02   1.8234415e+02   1.8868499e+02   1.9737168e+02   2.0563000e+02   2.0272373e+02   1.7621840e+02   1.2919891e+02   7.9589052e+01   5.5702709e+01   8.3113695e+01   1.6887318e+02   2.9604003e+02   4.3643126e+02   5.5645755e+02   6.4189081e+02   7.0041928e+02   7.5588006e+02   8.3711446e+02   9.6045615e+02   1.1219280e+03   1.2982747e+03   1.4589935e+03   1.5745250e+03   1.6327494e+03   1.6318781e+03   1.5847737e+03   1.5026541e+03   1.3860774e+03   1.2310520e+03   1.0270966e+03   7.6807961e+02   4.6270252e+02   1.3254819e+02  -1.9231341e+02  -4.8109913e+02  -7.0934142e+02  -8.6400698e+02  -9.4352706e+02  -9.5157724e+02  -8.9748808e+02  -7.9522904e+02  -6.6197941e+02  -5.1636735e+02  -3.7551116e+02  -2.5002645e+02  -1.4616512e+02  -6.3224847e+01   6.8072002e-01   4.8465535e+01   8.5569993e+01   1.1321506e+02   1.3755304e+02   1.6087067e+02   1.8198863e+02   1.9896378e+02   2.0614377e+02   1.9955984e+02   1.8158109e+02   1.6070621e+02   1.4234234e+02   1.2942299e+02   1.1674416e+02   9.8948182e+01   7.4147645e+01   4.5247245e+01   2.4077531e+01   2.0490740e+01   3.9580640e+01   8.0169905e+01   1.3666605e+02   2.0032540e+02   2.5989511e+02   3.0853782e+02   3.3689269e+02   3.3810057e+02   3.1262293e+02   2.6671508e+02   2.0846951e+02   1.4941429e+02   9.4724316e+01   4.5167496e+01   3.9514808e+00  -2.4346446e+01  -3.2596669e+01  -1.3553068e+01   3.3158775e+01   9.3494778e+01   1.5080940e+02   1.9190016e+02   2.1410874e+02   2.2330089e+02   2.3057092e+02   2.3756416e+02   2.3937746e+02   2.2206742e+02   1.8286233e+02   1.2921981e+02   8.3896242e+01   6.6186445e+01   8.2460132e+01   1.2006593e+02   1.5560824e+02   1.6953551e+02   1.5792431e+02   1.3630996e+02   1.2440792e+02   1.3059174e+02   1.4703828e+02   1.5451193e+02   1.3482591e+02   8.9078201e+01   3.7802016e+01   1.1188976e+01   2.9532411e+01   9.3001883e+01   1.7880232e+02   2.5570377e+02   2.9686117e+02   2.9578999e+02   2.6133280e+02   2.1344895e+02   1.6768525e+02   1.3223715e+02   1.0157629e+02   6.7693921e+01   2.6074035e+01  -1.6442118e+01  -4.7717890e+01  -5.4136871e+01  -2.8037519e+01   2.4306393e+01   9.0159859e+01   1.5318128e+02   2.0152203e+02   2.3099578e+02   2.4513202e+02   2.4594795e+02   2.3832048e+02   2.2290586e+02   1.9862930e+02   1.7083659e+02   1.4525314e+02   1.2692514e+02   1.1931654e+02   1.1870533e+02   1.1896965e+02   1.1578523e+02   1.0718588e+02   9.7377433e+01   9.4654338e+01   1.0125360e+02   1.1699615e+02   1.3360532e+02   1.4365276e+02   1.4514920e+02   1.4086159e+02   1.3848803e+02   1.4284649e+02   1.5723183e+02   1.7306441e+02   1.8390210e+02   1.8282063e+02   1.7210079e+02   1.5310318e+02   1.3117562e+02   1.1042786e+02   9.3228427e+01   8.3323808e+01   8.2543940e+01   8.9129574e+01   9.7783746e+01   9.6599350e+01   8.0040793e+01   5.2151511e+01   2.9125766e+01   3.3324858e+01   7.9745139e+01   1.6287105e+02   2.5878196e+02   3.3333835e+02   3.5625825e+02   3.2391206e+02   2.4970794e+02   1.6100778e+02   8.3588700e+01   2.5739386e+01  -1.3860947e+01  -4.3300025e+01  -6.4441058e+01  -7.2624473e+01  -5.7957290e+01  -1.8154498e+01   3.9029008e+01   9.7669928e+01   1.4169751e+02   1.6188824e+02   1.5766772e+02   1.3758988e+02   1.1142235e+02   8.5837209e+01   6.3774545e+01   4.5603103e+01   3.3235485e+01   2.8360975e+01   3.0935771e+01   3.9022289e+01   4.8004916e+01   5.4140878e+01   5.5343194e+01   5.1049739e+01   3.8015262e+01   1.2875418e+01  -2.8629162e+01  -8.5820761e+01  -1.4862688e+02  -1.9641158e+02  -2.0995673e+02  -1.8142369e+02  -1.1912478e+02  -4.5962695e+01   1.3550154e+01   4.4710509e+01   4.7424883e+01   3.7269823e+01   3.2643052e+01   4.4818609e+01   6.6731366e+01   8.4358848e+01   7.6631969e+01   3.4883676e+01  -3.5080845e+01  -1.1414602e+02  -1.7709545e+02  -2.0467722e+02  -1.9135634e+02  -1.4663796e+02  -8.8914791e+01  -3.9870688e+01  -7.5433720e+00   5.7956329e+00   8.7596884e+00   6.7827708e+00   1.7255568e+00  -7.9375767e+00  -2.7367685e+01  -5.4989821e+01  -8.6381660e+01  -1.1526100e+02  -1.3539789e+02  -1.4329454e+02  -1.3551992e+02  -1.1264953e+02  -7.7831785e+01  -4.0068866e+01  -1.2350346e+01  -6.8031623e+00  -2.9017733e+01  -7.0677351e+01  -1.1556300e+02  -1.4893696e+02  -1.6123919e+02  -1.5697276e+02  -1.4361762e+02  -1.2540419e+02  -1.0180001e+02  -6.6610311e+01  -1.8660053e+01   3.2901999e+01   7.2569163e+01   8.4554486e+01   6.6798734e+01   2.7734227e+01  -1.3331917e+01  -4.4290875e+01  -6.5761537e+01  -8.8000269e+01  -1.2305083e+02  -1.7095214e+02  -2.1781032e+02  -2.4556113e+02  -2.3929854e+02  -1.9611487e+02  -1.2947766e+02  -5.6242931e+01   8.5357822e+00   6.0811865e+01   9.9571528e+01   1.2252078e+02   1.2333001e+02   9.5406656e+01   3.9244253e+01  -3.5535252e+01  -1.0828026e+02  -1.5836428e+02  -1.7502286e+02  -1.6283967e+02  -1.3581162e+02  -1.0899683e+02  -8.9820619e+01  -7.4173034e+01  -5.9464554e+01  -4.5810633e+01  -4.0490059e+01  -5.1770628e+01  -8.2128524e+01  -1.2081606e+02  -1.4666934e+02  -1.4500369e+02  -1.1342775e+02  -6.6421460e+01  -2.5564461e+01  -5.3639670e+00  -2.7033136e+00  -6.0015281e+00  -2.2278743e+00   1.1054789e+01   1.8445301e+01   1.1164590e+00  -5.1201149e+01  -1.2967668e+02  -2.0921506e+02  -2.6154202e+02  -2.7136315e+02  -2.4340566e+02  -1.9616705e+02  -1.4824135e+02  -1.0916088e+02  -7.5770985e+01  -3.5232096e+01   1.7194610e+01   7.9385701e+01   1.3742038e+02   1.7330259e+02   1.7422635e+02   1.3834529e+02   7.7087770e+01   8.1326384e+00  -5.0785337e+01  -8.5045737e+01  -9.5101098e+01  -8.9073827e+01  -7.5904565e+01  -6.3041043e+01  -4.9733076e+01  -2.9064197e+01   3.1083409e+00   4.4122201e+01   8.1223965e+01   9.7913266e+01   9.0868679e+01   6.8480951e+01   4.8088772e+01   5.0063351e+01   7.5912900e+01   1.1357347e+02   1.4501654e+02   1.5524576e+02   1.4768461e+02   1.3588408e+02   1.3542201e+02   1.4982796e+02   1.6536148e+02   1.6449494e+02   1.3200212e+02   7.1623405e+01  -2.6475953e+00  -6.7541737e+01  -1.1059327e+02  -1.2313426e+02  -1.0602965e+02  -6.3017640e+01   2.4152061e+00   7.9617214e+01   1.5272933e+02   2.0486848e+02   2.2334745e+02   2.0673336e+02   1.6457038e+02   1.1364591e+02   6.3753017e+01   1.4984026e+01  -3.8333291e+01  -9.9887606e+01  -1.6162411e+02  -2.0977590e+02  -2.2552445e+02  -2.0318933e+02  -1.4892422e+02  -8.0978073e+01  -2.0650143e+01   1.7884318e+01   3.4682631e+01   3.6897569e+01   3.6259825e+01   3.4111826e+01   2.6002801e+01   5.9288066e+00  -3.0639363e+01  -7.2763851e+01  -1.0890490e+02  -1.2449284e+02  -1.1611219e+02  -9.2272847e+01  -6.8818292e+01  -5.5085832e+01  -5.8978126e+01  -7.5120320e+01  -9.6262453e+01  -1.1804171e+02  -1.3715462e+02  -1.5391512e+02  -1.6110348e+02  -1.5495722e+02  -1.3212570e+02  -9.5413416e+01  -5.4170065e+01  -1.9244948e+01   5.5023418e+00   2.0065269e+01   3.0391981e+01   3.8544566e+01   4.2721631e+01   3.6968412e+01   1.6447647e+01  -1.7784340e+01  -5.8470528e+01  -9.6211008e+01  -1.2572008e+02  -1.4508245e+02  -1.5480700e+02  -1.5550853e+02  -1.4210777e+02  -1.1051867e+02  -5.8874733e+01   5.5785698e+00   7.0745577e+01   1.1989246e+02   1.4061675e+02   1.3042334e+02   9.5823127e+01   5.0950558e+01   1.0775775e+01  -1.8946968e+01  -3.8811832e+01  -5.5783012e+01  -7.4936522e+01  -9.5805170e+01  -1.1128056e+02  -1.1310375e+02  -9.7047256e+01  -6.9943446e+01  -4.1738496e+01  -2.3744402e+01  -2.0223131e+01  -2.6376180e+01  -3.2738595e+01  -2.9902772e+01  -1.3437181e+01   1.1171132e+01   3.4727337e+01   5.0843870e+01   5.6857648e+01   6.1176546e+01   7.0004726e+01   9.0328348e+01   1.1799296e+02   1.4368446e+02   1.5263687e+02   1.3493410e+02   8.8339210e+01   2.1664769e+01  -4.8223637e+01  -1.0361447e+02  -1.3317276e+02  -1.3497695e+02  -1.1619620e+02  -8.7291744e+01  -5.5702503e+01  -2.5059919e+01   7.9460774e+00   4.4870034e+01   8.5775524e+01   1.2425960e+02   1.5307556e+02   1.7125800e+02   1.8373607e+02   2.0250428e+02   2.4049157e+02   3.0231669e+02   3.9013403e+02   4.9975453e+02   6.3517830e+02   8.0160296e+02   9.9889153e+02   1.2194070e+03   1.4330583e+03   1.5983748e+03   1.6804195e+03   1.6583876e+03   1.5457952e+03   1.3742324e+03   1.1797406e+03   9.8293165e+02   7.8501909e+02   5.7293971e+02   3.3273144e+02   6.6282898e+01  -2.0549603e+02  -4.4910970e+02  -6.3761825e+02  -7.5463891e+02  -8.0238970e+02  -7.9795303e+02  -7.6290116e+02  -7.1736382e+02  -6.7354141e+02  -6.3058849e+02  -5.8172573e+02  -5.1739477e+02  -4.3025862e+02  -3.2087213e+02  -1.9689916e+02  -6.7827281e+01   5.3785562e+01   1.5741923e+02   2.3388015e+02   2.7656435e+02   2.8449006e+02   2.6093105e+02   2.1754646e+02   1.6998382e+02   1.2801850e+02   9.5368103e+01   6.5372325e+01   3.5750382e+01   5.6328555e+00  -1.3981022e+01  -1.0261751e+01   2.0912110e+01   7.1829340e+01   1.2208167e+02   1.5276650e+02   1.5355577e+02   1.3345764e+02   1.0815243e+02   9.5860470e+01   9.8779824e+01   1.1320580e+02   1.2649623e+02   1.3107093e+02   1.3162343e+02   1.3568293e+02   1.4659960e+02   1.6194991e+02   1.7228203e+02   1.6906054e+02   1.4963310e+02   1.2103749e+02   9.5495339e+01   8.0494591e+01   7.4436281e+01   7.0900156e+01   6.0652790e+01   4.2571516e+01   2.2675608e+01   1.5442084e+01   3.3537576e+01   8.3027945e+01   1.5404589e+02   2.2681739e+02   2.7888361e+02   2.9431817e+02   2.7073640e+02   2.2092364e+02   1.6097114e+02   1.0488763e+02   5.6741197e+01   1.5464158e+01  -2.2490236e+01  -5.3424688e+01  -6.9404062e+01  -6.2830179e+01  -2.9494826e+01   2.0893916e+01   7.6631768e+01   1.2423155e+02   1.5773108e+02   1.8088361e+02   1.9904116e+02   2.1259529e+02   2.1891499e+02   2.1180617e+02   1.8559667e+02   1.4301113e+02   9.3031970e+01   4.5940573e+01   1.0697729e+01  -5.2399891e+00  -6.4922413e-01   2.1124753e+01   5.5096425e+01   9.2657615e+01   1.1949620e+02   1.2624778e+02   1.0776099e+02   7.2928717e+01   3.7115235e+01   1.9284510e+01   3.1988850e+01   7.1405005e+01   1.2359855e+02   1.6715845e+02   1.9028045e+02   1.9429769e+02   1.9157852e+02   1.9564363e+02   2.0731262e+02   2.1568100e+02   2.0475226e+02   1.6360526e+02   9.9054187e+01   3.2843034e+01  -1.3503267e+01  -2.7989148e+01  -1.5408219e+01   7.6540824e+00   2.8242024e+01   4.4973490e+01   6.6520355e+01   1.0555131e+02   1.6298763e+02   2.2437119e+02   2.6912632e+02   2.8051445e+02   2.5813266e+02   2.1288200e+02   1.6341974e+02   1.1919332e+02   8.0221542e+01   3.9826997e+01  -3.4720022e+00  -4.1732390e+01  -5.5902560e+01  -3.4645589e+01   2.0285242e+01   8.8997354e+01   1.4556203e+02   1.7007272e+02   1.5947339e+02   1.3001599e+02   1.0427374e+02   9.3717684e+01   9.6942208e+01   1.0368689e+02   1.0183859e+02   9.1600291e+01   8.2982924e+01   8.8718625e+01   1.1361738e+02   1.5030904e+02   1.8124157e+02   1.9375806e+02   1.8005694e+02   1.4685769e+02   1.0464155e+02   6.2410359e+01   2.4988778e+01  -6.0236186e+00  -2.6481439e+01  -3.3899161e+01  -1.9428352e+01   1.8564130e+01   7.8423947e+01   1.4966683e+02   2.2090189e+02   2.7807816e+02   3.1485702e+02   3.2689009e+02   3.1579643e+02   2.8368061e+02   2.3610808e+02   1.7754223e+02   1.1533585e+02   5.4440957e+01   2.0467426e+00  -3.5635780e+01  -5.1249584e+01  -3.8693603e+01   3.4919915e-03   5.9304404e+01   1.2416405e+02   1.7923444e+02   2.1406726e+02   2.2611261e+02   2.2035164e+02   2.0546676e+02   1.8753508e+02   1.6731318e+02   1.4125185e+02   1.0942360e+02   7.7558677e+01   5.6362513e+01   5.2235495e+01   6.5442404e+01   8.6696834e+01   1.0205101e+02   1.0392551e+02   8.8086793e+01   6.4389333e+01   3.9138449e+01   1.8998381e+01   2.4495474e+00  -1.7118921e+01  -4.1528679e+01  -6.3949964e+01  -7.3856079e+01  -5.8620072e+01  -1.1637633e+01   5.7060695e+01   1.3065832e+02   1.8673214e+02   2.1157451e+02   2.0544107e+02   1.7951653e+02   1.4843467e+02   1.2525998e+02   1.0692635e+02   8.4217956e+01   4.9452264e+01   1.0751464e+00  -4.8607236e+01  -8.2357522e+01  -8.6450642e+01  -5.7564660e+01  -5.1429254e+00   5.6662755e+01   1.1129061e+02   1.4909502e+02   1.6648445e+02   1.6569087e+02   1.4905426e+02   1.1978954e+02   8.3290252e+01   4.7100520e+01   2.0740153e+01   1.1588697e+01   2.1019743e+01   4.4929313e+01   7.1730227e+01   8.8801321e+01   8.9299631e+01   7.5180286e+01   5.6233375e+01   4.3945526e+01   4.4026704e+01   5.4503790e+01   6.4361005e+01   6.3789817e+01   5.0182304e+01   3.3050220e+01   2.7068196e+01   4.1420543e+01   7.7580316e+01   1.2457432e+02   1.6770317e+02   1.9660400e+02   2.0748095e+02   2.0529526e+02   1.9270865e+02   1.6961181e+02   1.3213649e+02   7.6135059e+01   9.2010988e+00  -5.6618104e+01  -1.0521168e+02  -1.2367333e+02  -1.1024035e+02  -6.7748322e+01  -7.5254457e+00   6.0259043e+01   1.2468803e+02   1.7745556e+02   2.1327305e+02   2.2709726e+02   2.1898606e+02   1.9044988e+02   1.4625160e+02   9.3698449e+01   3.9552367e+01  -1.0253497e+01  -4.7876197e+01  -6.8594370e+01  -7.1444452e+01  -5.8367091e+01  -3.6854583e+01  -1.1175508e+01   1.3675440e+01   3.8110405e+01   6.0960677e+01   7.6190406e+01   7.7189357e+01   5.9598974e+01   2.8710544e+01  -5.4492337e+00  -2.5173236e+01  -1.9072800e+01   1.5167331e+01   6.6421892e+01   1.2022104e+02   1.6330089e+02   1.9151838e+02   2.0397226e+02   2.0313293e+02   1.9077709e+02   1.6155389e+02   1.1506990e+02   5.2461596e+01  -1.4487534e+01  -7.2548230e+01  -1.0637032e+02  -1.0671141e+02  -7.1361255e+01  -7.6012256e+00   7.0886929e+01   1.5065813e+02   2.2159176e+02   2.7825951e+02   3.1735533e+02   3.4095812e+02   3.4542399e+02   3.2876549e+02   2.8645897e+02   2.2071437e+02   1.3732957e+02   5.0317928e+01  -2.4467157e+01  -7.2489016e+01  -8.5283312e+01  -6.3699159e+01  -1.5599404e+01   4.5915604e+01   1.0961832e+02   1.6340241e+02   1.9845471e+02   2.1215360e+02   2.0154761e+02   1.7034456e+02   1.2342714e+02   7.0994067e+01   2.5490366e+01  -3.4752153e+00  -1.0027138e+01   2.4282123e+00   2.5101141e+01   4.3181879e+01   4.7601831e+01   3.6053048e+01   1.1078698e+01  -1.9967504e+01  -5.1273972e+01  -8.3363276e+01  -1.1437390e+02  -1.4679600e+02  -1.7754286e+02  -2.0317876e+02  -2.1609118e+02  -2.1140103e+02  -1.8244445e+02  -1.2773021e+02  -5.3364243e+01   2.2976816e+01   8.0363470e+01   9.8010736e+01   7.1527015e+01   1.1807135e+01  -5.8580840e+01  -1.1958361e+02  -1.6340017e+02  -2.0165321e+02  -2.4780747e+02  -3.0660804e+02  -3.6630860e+02  -4.0149464e+02  -3.9037412e+02  -3.2949581e+02  -2.3494957e+02  -1.3718741e+02  -6.3664236e+01  -2.6523865e+01  -1.9544418e+01  -3.0509641e+01  -5.0097951e+01  -7.2291797e+01  -1.0022230e+02  -1.3629093e+02  -1.7536653e+02  -2.0884703e+02  -2.2740270e+02  -2.2827729e+02  -2.1110336e+02  -1.8527565e+02  -1.5800407e+02  -1.3622536e+02  -1.2357604e+02  -1.2261816e+02  -1.3646318e+02  -1.6286777e+02  -2.0079002e+02  -2.4131073e+02  -2.7475736e+02  -2.8982859e+02  -2.8151421e+02  -2.4863699e+02  -1.9690699e+02  -1.3546263e+02  -7.6962046e+01  -3.3368243e+01  -1.1628178e+01  -1.3468404e+01  -3.6514830e+01  -7.4893604e+01  -1.2439156e+02  -1.7916254e+02  -2.3687415e+02  -2.9411538e+02  -3.4183963e+02  -3.7061049e+02  -3.7044757e+02  -3.3713470e+02  -2.7594009e+02  -2.0079404e+02  -1.2705841e+02  -6.6087750e+01  -2.3815047e+01   4.1147983e-01   1.0557553e+01   3.0885354e+00  -2.3406253e+01  -7.0076310e+01  -1.3200521e+02  -1.9453199e+02  -2.3847517e+02  -2.5105687e+02  -2.3037989e+02  -1.8739009e+02  -1.4434656e+02  -1.1890662e+02  -1.2099813e+02  -1.4568577e+02  -1.7823541e+02  -2.0654291e+02  -2.2402608e+02  -2.3699481e+02  -2.5342743e+02  -2.7800870e+02  -3.0123629e+02  -3.0339000e+02  -2.6018086e+02  -1.5795323e+02  -6.3924859e+00   1.6822134e+02   3.2709062e+02   4.4312349e+02   5.1308880e+02   5.5849514e+02   6.1503045e+02   7.1347129e+02   8.6006039e+02   1.0314429e+03   1.1843289e+03   1.2780981e+03   1.2895794e+03   1.2252088e+03   1.1137132e+03   9.8937799e+02   8.7286587e+02   7.6245736e+02   6.3851867e+02   4.7096025e+02   2.4245323e+02  -4.3791263e+01  -3.6080203e+02  -6.7021780e+02  -9.2918087e+02  -1.1076038e+03  -1.1955985e+03  -1.2038337e+03  -1.1516013e+03  -1.0624265e+03  -9.5213121e+02  -8.2535745e+02  -6.8664569e+02  -5.3923609e+02  -3.9480526e+02  -2.6835649e+02  -1.7545122e+02  -1.1990575e+02  -9.6994462e+01  -9.3110037e+01  -9.5751578e+01  -9.7654477e+01  -9.7852693e+01  -9.8477802e+01  -9.8147780e+01  -9.4873108e+01  -8.6495031e+01  -7.4755953e+01  -6.6169666e+01  -6.8897124e+01  -8.3835575e+01  -1.0809404e+02  -1.3596182e+02  -1.6539093e+02  -1.9692298e+02  -2.3291063e+02  -2.6982947e+02  -2.9845512e+02  -3.0169902e+02  -2.6995020e+02  -2.0685112e+02  -1.2253019e+02  -3.8406007e+01   3.0248894e+01   7.6753088e+01   9.7234646e+01   9.0422277e+01   5.4877327e+01  -7.3745707e+00  -8.9755058e+01  -1.7544179e+02  -2.4586392e+02  -2.8614355e+02  -2.9525280e+02  -2.8170427e+02  -2.5467064e+02  -2.2252460e+02  -1.8688481e+02  -1.4633461e+02  -1.0503060e+02  -6.9433113e+01  -4.7365249e+01  -4.1548178e+01  -5.0676375e+01  -6.6003284e+01  -8.2321289e+01  -9.6153849e+01  -1.0694475e+02  -1.1203394e+02  -1.0925066e+02  -1.0102501e+02  -8.7005770e+01  -7.6262108e+01  -7.5219521e+01  -8.4529452e+01  -1.0008298e+02  -1.1635364e+02  -1.2919564e+02  -1.4414252e+02  -1.6616048e+02  -1.9772903e+02  -2.3005946e+02  -2.4223413e+02  -2.1705889e+02  -1.4746712e+02  -4.8389336e+01   5.0906595e+01   1.2190702e+02   1.4620173e+02   1.2786890e+02   8.0662912e+01   2.2801573e+01  -3.3787465e+01  -8.8812681e+01  -1.4451098e+02  -2.0194915e+02  -2.5252841e+02  -2.8945088e+02  -3.0391134e+02  -2.9482233e+02  -2.6495623e+02  -2.1848366e+02  -1.5998625e+02  -9.2106730e+01  -2.7057975e+01   2.3767614e+01   4.3865349e+01   2.6196149e+01  -2.1807960e+01  -8.4797308e+01  -1.4351078e+02  -1.8305475e+02  -2.0223260e+02  -2.0669885e+02  -2.0574671e+02  -2.0460472e+02  -1.9820549e+02  -1.7948260e+02  -1.4633243e+02  -1.0143526e+02  -5.9151683e+01  -3.2694567e+01  -3.3725420e+01  -6.2446431e+01  -1.0516984e+02  -1.4425966e+02  -1.6227263e+02  -1.5108828e+02  -1.1481761e+02  -6.5317777e+01  -1.4208165e+01   2.8628447e+01   6.2984683e+01   8.7552043e+01   9.8220754e+01   9.0229152e+01   5.8956910e+01   7.2136725e+00  -5.5041963e+01  -1.1152184e+02  -1.5084275e+02  -1.6998001e+02  -1.7370391e+02  -1.6776217e+02  -1.5461047e+02  -1.2756554e+02  -8.1349671e+01  -1.5094762e+01   5.8036256e+01   1.2339057e+02   1.6628141e+02   1.8112604e+02   1.7308570e+02   1.4810972e+02   1.1138482e+02   5.9287581e+01  -9.9814218e+00  -9.3853650e+01  -1.7669933e+02  -2.3577464e+02  -2.5066256e+02  -2.1714874e+02  -1.4856970e+02  -7.0759674e+01  -8.7883419e+00   2.2286589e+01   2.5435034e+01   1.2265945e+01  -2.8635043e+00  -1.2249086e+01  -1.7668099e+01  -2.5477163e+01  -3.6774067e+01  -4.6408335e+01  -4.4652801e+01  -2.3409945e+01   1.2089340e+01   5.0045466e+01   7.1174963e+01   6.4927260e+01   3.1612720e+01  -1.6766096e+01  -6.4139325e+01  -1.0053236e+02  -1.2575435e+02  -1.4850868e+02  -1.7774522e+02  -2.0902860e+02  -2.3268929e+02  -2.3355563e+02  -2.0013277e+02  -1.3618537e+02  -5.7779434e+01   1.5068908e+01   6.4923467e+01   8.3390169e+01   7.3273684e+01   4.1239514e+01  -6.1271694e+00  -6.1876244e+01  -1.2177109e+02  -1.8171526e+02  -2.3729620e+02  -2.8319701e+02  -3.1325109e+02  -3.1797565e+02  -2.9050765e+02  -2.2896538e+02  -1.4135353e+02  -4.5203142e+01   2.8821294e+01   6.0114993e+01   3.8931233e+01  -2.0337948e+01  -8.8431439e+01  -1.3697587e+02  -1.5458308e+02  -1.4808535e+02  -1.3968493e+02  -1.4481271e+02  -1.6454623e+02  -1.8351686e+02  -1.8532887e+02  -1.6360036e+02  -1.3080486e+02  -1.1112834e+02  -1.2155470e+02  -1.6235361e+02  -2.1507283e+02  -2.5404777e+02  -2.6434786e+02  -2.4599962e+02  -2.1327370e+02  -1.8280781e+02  -1.6036110e+02  -1.3905582e+02  -1.0904787e+02  -6.8665291e+01  -2.6145655e+01   2.8248281e+00   4.5305977e+00  -2.4633201e+01  -7.6494414e+01  -1.3602982e+02  -1.9390467e+02  -2.4454604e+02  -2.8858149e+02  -3.2541348e+02  -3.4967693e+02  -3.5234565e+02  -3.2731111e+02  -2.7634357e+02  -2.1044682e+02  -1.4671701e+02  -9.8896079e+01  -7.2858522e+01  -6.4277496e+01  -6.8683610e+01  -7.9060331e+01  -9.9029141e+01  -1.2857686e+02  -1.6718870e+02  -2.0718390e+02  -2.3602118e+02  -2.4435125e+02  -2.3064124e+02  -2.0227433e+02  -1.7212097e+02  -1.5067103e+02  -1.4089316e+02  -1.3903325e+02  -1.4157336e+02  -1.4654105e+02  -1.5729600e+02  -1.7583331e+02  -1.9954996e+02  -2.2033662e+02  -2.2679646e+02  -2.0836773e+02  -1.6614110e+02  -1.0721393e+02  -4.7504344e+01  -4.1700913e-02   2.5155528e+01   2.5429713e+01   6.8323278e+00  -2.4763721e+01  -6.1985823e+01  -1.0284615e+02  -1.4822355e+02  -1.9987747e+02  -2.5583759e+02  -3.0994725e+02  -3.4731006e+02  -3.5840238e+02  -3.3366602e+02  -2.7948124e+02  -2.0851966e+02  -1.3657978e+02  -7.5091654e+01  -2.7531870e+01   9.9967597e+00   3.8794088e+01   5.8039978e+01   5.7650869e+01   2.9550030e+01  -2.6518961e+01  -1.0143217e+02  -1.7713674e+02  -2.3487447e+02  -2.6198080e+02  -2.5613795e+02  -2.2405571e+02  -1.7965159e+02  -1.3488613e+02  -9.6465859e+01  -6.8644768e+01  -5.3334133e+01  -5.0672235e+01  -6.3122377e+01  -8.7071942e+01  -1.1981657e+02  -1.5174406e+02  -1.6949824e+02  -1.6290605e+02  -1.2749370e+02  -7.0491313e+01  -9.3170250e+00   3.5374277e+01   4.6912735e+01   2.0889573e+01  -3.3742492e+01  -1.0194775e+02  -1.6740528e+02  -2.2287840e+02  -2.6810916e+02  -3.0809948e+02  -3.4557057e+02  -3.7735771e+02  -3.9350305e+02  -3.8185632e+02  -3.4007242e+02  -2.7499384e+02  -2.0150891e+02  -1.3406416e+02  -8.7068683e+01  -6.3447337e+01  -6.5577260e+01  -9.2779254e+01  -1.4444579e+02  -2.1578246e+02  -2.9804018e+02  -3.7603572e+02  -4.3471242e+02  -4.6348931e+02  -4.6318410e+02  -4.4136901e+02  -4.1211436e+02  -3.8117685e+02  -3.4878154e+02  -3.1121114e+02  -2.6944452e+02  -2.3007296e+02  -2.0467042e+02  -2.0371294e+02  -2.2704492e+02  -2.6379557e+02  -2.9657126e+02  -3.1170373e+02  -3.0132727e+02  -2.7209151e+02  -2.3538284e+02  -2.0201768e+02  -1.7946577e+02  -1.7074663e+02  -1.7520259e+02  -1.9137464e+02  -2.1919183e+02  -2.5662974e+02  -3.0091280e+02  -3.5023728e+02  -3.9489963e+02  -4.2663998e+02  -4.3396849e+02  -4.0924039e+02  -3.5128412e+02  -2.6846004e+02  -1.7712274e+02  -9.6561309e+01  -4.2582280e+01  -2.4963492e+01  -4.0032304e+01  -8.1605416e+01  -1.3946950e+02  -2.0549518e+02  -2.7537276e+02  -3.4585545e+02  -4.1531277e+02  -4.7734442e+02  -5.2019591e+02  -5.3374940e+02  -5.1093405e+02  -4.5549561e+02  -3.7717073e+02  -2.9340852e+02  -2.1985432e+02  -1.6684706e+02  -1.3417506e+02  -1.2028836e+02  -1.2408511e+02  -1.4729170e+02  -1.9135530e+02  -2.5268248e+02  -3.1600206e+02  -3.6261338e+02  -3.7930579e+02  -3.6179636e+02  -3.2362028e+02  -2.8150548e+02  -2.5435508e+02  -2.4502917e+02  -2.5115236e+02  -2.6516708e+02  -2.8480812e+02  -3.1209729e+02  -3.4586359e+02  -3.8269921e+02  -4.0818157e+02  -4.0814181e+02  -3.7574804e+02  -3.1920106e+02  -2.5690540e+02  -2.0906906e+02  -1.8178502e+02  -1.6873990e+02  -1.5676271e+02  -1.3945964e+02  -1.2317025e+02  -1.3043156e+02  -1.8305265e+02  -2.8380248e+02  -4.1061001e+02  -5.2308872e+02  -5.7914126e+02  -5.5838379e+02  -4.6615700e+02  -3.3495757e+02  -1.9621772e+02  -7.2468113e+01   3.6980734e+01   1.4462425e+02   2.6336059e+02   3.9284166e+02   5.2636467e+02   6.5616734e+02   7.8309056e+02   9.1267610e+02   1.0468607e+03   1.1724909e+03   1.2609100e+03   1.2838505e+03   1.2298087e+03   1.1099947e+03   9.5584631e+02   7.9500483e+02   6.3656595e+02   4.6238092e+02   2.4817316e+02  -1.8725750e+01  -3.2314757e+02  -6.2540091e+02  -8.8106367e+02  -1.0621049e+03  -1.1631282e+03  -1.1995039e+03  -1.1901825e+03  -1.1430289e+03  -1.0586108e+03  -9.3846795e+02  -7.9098007e+02  -6.3903243e+02  -5.0771006e+02  -4.1725715e+02  -3.7349347e+02  -3.6680489e+02  -3.7772746e+02  -3.8904256e+02  -3.9421073e+02  -3.9191065e+02  -3.8642786e+02  -3.7865813e+02  -3.6455144e+02  -3.3191356e+02  -2.7458758e+02  -1.9614081e+02  -1.1226491e+02  -4.7145729e+01  -2.1065224e+01  -4.1460546e+01  -9.5590113e+01  -1.5985719e+02  -2.1173331e+02  -2.4212645e+02  -2.5696701e+02  -2.6975205e+02  -2.8879816e+02  -3.0900563e+02  -3.1902031e+02  -3.0278195e+02  -2.5955076e+02  -1.9958912e+02  -1.4473109e+02  -1.1308571e+02  -1.1109307e+02  -1.3308610e+02  -1.6742080e+02  -2.0313682e+02  -2.3401774e+02  -2.5985186e+02  -2.7766067e+02  -2.8267118e+02  -2.6685480e+02  -2.2993553e+02  -1.7986510e+02  -1.3385999e+02  -1.1117487e+02  -1.1983615e+02  -1.5856929e+02  -2.1312132e+02  -2.6611268e+02  -3.0645979e+02  -3.3330928e+02  -3.5033270e+02  -3.6116451e+02  -3.6373584e+02  -3.5426958e+02  -3.2475534e+02  -2.7480861e+02  -2.0892129e+02  -1.3821391e+02  -7.6886070e+01  -3.4615034e+01  -1.7164671e+01  -2.9435280e+01  -6.8113754e+01  -1.3298654e+02  -2.1586848e+02  -3.0600013e+02  -3.8768880e+02  -4.4592928e+02  -4.6974404e+02  -4.5803033e+02  -4.1778359e+02  -3.6067052e+02  -3.0103180e+02  -2.4648777e+02  -2.0038286e+02  -1.6032793e+02  -1.2907801e+02  -1.0992267e+02  -1.0967646e+02  -1.3125314e+02  -1.7470903e+02  -2.2956179e+02  -2.8214823e+02  -3.1978183e+02  -3.3351003e+02  -3.2234554e+02  -2.9194025e+02  -2.5177052e+02  -2.1498937e+02  -1.9215951e+02  -1.9410273e+02  -2.2607898e+02  -2.8445015e+02  -3.5489642e+02  -4.1615356e+02  -4.5014531e+02  -4.4531166e+02  -4.0589588e+02  -3.4795580e+02  -2.8590945e+02  -2.3050389e+02  -1.8319442e+02  -1.4202435e+02  -1.0718415e+02  -8.3487335e+01  -8.2020416e+01  -1.0619879e+02  -1.5439711e+02  -2.1622798e+02  -2.8343575e+02  -3.5126916e+02  -4.1511547e+02  -4.7213361e+02  -5.1062198e+02  -5.1689890e+02  -4.7855286e+02  -4.0002272e+02  -2.9657754e+02  -1.9186395e+02  -1.0725860e+02  -5.3293220e+01  -2.6405202e+01  -2.3210341e+01  -3.8404668e+01  -7.4297932e+01  -1.2987496e+02  -2.0119660e+02  -2.7589720e+02  -3.3652541e+02  -3.7050580e+02  -3.7456865e+02  -3.5458941e+02  -3.2288253e+02  -2.9008870e+02  -2.6486314e+02  -2.5160441e+02  -2.5045243e+02  -2.5773431e+02  -2.6895416e+02  -2.7732503e+02  -2.7974313e+02  -2.7402451e+02  -2.5717616e+02  -2.3046616e+02  -1.9509103e+02  -1.5130922e+02  -1.0800402e+02  -7.2739735e+01  -5.6468194e+01  -6.6106393e+01  -9.9234290e+01  -1.4814594e+02  -2.0643026e+02  -2.6716991e+02  -3.3074257e+02  -3.9710479e+02  -4.5935513e+02  -5.0532195e+02  -5.1891276e+02  -4.9099834e+02  -4.2167863e+02  -3.2787916e+02  -2.2833565e+02  -1.4112711e+02  -7.5991354e+01  -3.6693985e+01  -2.4712797e+01  -4.5447256e+01  -9.8076253e+01  -1.7808049e+02  -2.7133670e+02  -3.5659828e+02  -4.1611550e+02  -4.4412896e+02  -4.4499501e+02  -4.2876739e+02  -4.0615342e+02  -3.8086926e+02  -3.5152014e+02  -3.1720908e+02  -2.8411993e+02  -2.5831982e+02  -2.4698392e+02  -2.5016731e+02  -2.6315129e+02  -2.7528937e+02  -2.8119037e+02  -2.7901788e+02  -2.7466602e+02  -2.7159518e+02  -2.7117360e+02  -2.6945913e+02  -2.5845768e+02  -2.3698873e+02  -2.1036140e+02  -1.9110077e+02  -1.9295915e+02  -2.2239954e+02  -2.7665840e+02  -3.4139365e+02  -3.9882148e+02  -4.3515686e+02  -4.4411694e+02  -4.2822916e+02  -3.9171539e+02  -3.3579024e+02  -2.6130873e+02  -1.6880679e+02  -6.9080994e+01   1.9467326e+01   7.4456029e+01   7.8849183e+01   2.8768721e+01  -6.2344032e+01  -1.7224588e+02  -2.7600556e+02  -3.5653376e+02  -4.0728157e+02  -4.3083318e+02  -4.3013775e+02  -4.1118740e+02  -3.7404022e+02  -3.1919724e+02  -2.5144835e+02  -1.7938796e+02  -1.1785334e+02  -7.8545992e+01  -7.0061451e+01  -9.1478602e+01  -1.3556193e+02  -1.8752391e+02  -2.3419963e+02  -2.6641677e+02  -2.8131424e+02  -2.7937594e+02  -2.6499990e+02  -2.4250783e+02  -2.1660149e+02  -1.9637086e+02  -1.8803988e+02  -1.9968226e+02  -2.3114589e+02  -2.7138741e+02  -3.0934644e+02  -3.3139173e+02  -3.3327004e+02  -3.2039605e+02  -3.0625864e+02  -2.9669327e+02  -2.9378972e+02  -2.8726272e+02  -2.6520436e+02  -2.2124180e+02  -1.6222800e+02  -1.0267505e+02  -5.9188850e+01  -4.4167710e+01  -6.0987951e+01  -1.0382127e+02  -1.6412512e+02  -2.3473621e+02  -3.0839605e+02  -3.7546583e+02  -4.2655442e+02  -4.4979695e+02  -4.3957818e+02  -3.9458578e+02  -3.2618884e+02  -2.4624675e+02  -1.7054715e+02  -1.0812930e+02  -6.3766426e+01  -3.9849722e+01  -3.4847436e+01  -4.9414020e+01  -8.4114762e+01  -1.3462894e+02  -1.9321724e+02  -2.4619810e+02  -2.8218194e+02  -2.9485837e+02  -2.8221284e+02  -2.5415068e+02  -2.2060998e+02  -1.8833381e+02  -1.6152998e+02  -1.3766325e+02  -1.1659961e+02  -1.0325657e+02  -1.0382218e+02  -1.2350258e+02  -1.5866199e+02  -1.9714768e+02  -2.2055699e+02  -2.1321135e+02  -1.7265182e+02  -1.0755355e+02  -3.4058722e+01   2.7368920e+01   6.3378542e+01   6.9210881e+01   4.6963929e+01   1.4194562e+00  -5.7724301e+01  -1.2027053e+02  -1.7753870e+02  -2.2082090e+02  -2.4804729e+02  -2.5538927e+02  -2.4253604e+02  -2.0743106e+02  -1.4734242e+02  -6.3249791e+01   3.4356889e+01   1.3207542e+02   2.0632850e+02   2.4096114e+02   2.2844193e+02   1.7647908e+02   1.0095882e+02   2.4226120e+01  -4.0164683e+01  -8.8015796e+01  -1.2110615e+02  -1.4659891e+02  -1.6400928e+02  -1.7058423e+02  -1.5904673e+02  -1.2476661e+02  -7.1515785e+01  -1.0034228e+01   4.2339052e+01   7.2731738e+01   7.2319404e+01   4.2329636e+01  -9.5204601e+00  -7.4041721e+01  -1.3985340e+02  -1.9668886e+02  -2.3048466e+02  -2.3205096e+02  -1.9719564e+02  -1.3527344e+02  -6.5234339e+01  -1.2337201e+01   2.2428358e+00  -2.7337812e+01  -9.2718206e+01  -1.7600240e+02  -2.5504664e+02  -3.1833282e+02  -3.5729340e+02  -3.7287241e+02  -3.6706136e+02  -3.4214836e+02  -2.9646224e+02  -2.3247506e+02  -1.5723179e+02  -8.1188454e+01  -1.2639527e+01   3.7014126e+01   6.7877503e+01   7.6791066e+01   6.5978035e+01   3.0003290e+01  -3.3948506e+01  -1.2235711e+02  -2.2600337e+02  -3.2169137e+02  -3.8677831e+02  -4.0426765e+02  -3.7129642e+02  -3.0594970e+02  -2.2944730e+02  -1.6585195e+02  -1.2452456e+02  -1.0259113e+02  -9.0677653e+01  -8.2119767e+01  -7.3767346e+01  -7.2401082e+01  -7.9670788e+01  -9.5376963e+01  -1.0985963e+02  -1.1224336e+02  -9.9316453e+01  -7.3889408e+01  -4.7573247e+01  -3.1022214e+01  -3.0782461e+01  -4.4959200e+01  -6.6948585e+01  -9.1470316e+01  -1.1708473e+02  -1.4829311e+02  -1.9221643e+02  -2.4574385e+02  -2.9795726e+02  -3.3058438e+02  -3.2722367e+02  -2.7811811e+02  -1.8932933e+02  -7.9263849e+01   3.0386123e+01   1.1712338e+02   1.6830943e+02   1.7773739e+02   1.4885105e+02   9.2402666e+01   1.8432256e+01  -5.9436780e+01  -1.3227889e+02  -1.9352109e+02  -2.4170615e+02  -2.7608024e+02  -2.9175030e+02  -2.8222701e+02  -2.4127076e+02  -1.7207241e+02  -8.5909474e+01  -5.0293016e-01   6.5653508e+01   1.0371942e+02   1.1646120e+02   1.1058786e+02   9.3430102e+01   6.5034094e+01   2.3839319e+01  -3.1823585e+01  -9.4152578e+01  -1.4796911e+02  -1.7630621e+02  -1.6839971e+02  -1.3109852e+02  -8.3812254e+01  -4.9195197e+01  -4.0810380e+01  -5.6019401e+01  -7.6301457e+01  -8.3127354e+01  -6.4413579e+01  -2.0477128e+01   3.8679617e+01   1.0598590e+02   1.8507375e+02   2.8643182e+02   4.2610595e+02   6.0901573e+02   8.2984934e+02   1.0703953e+03   1.3050913e+03   1.5035261e+03   1.6396356e+03   1.6923789e+03   1.6497656e+03   1.5172138e+03   1.3173314e+03   1.0883091e+03   8.6318297e+02   6.5925085e+02   4.6990079e+02   2.7504680e+02   5.9267078e+01  -1.7037499e+02  -3.8795887e+02  -5.5800536e+02  -6.6072092e+02  -6.9946969e+02  -7.0371716e+02  -7.0260866e+02  -7.1324127e+02  -7.2757169e+02  -7.2679937e+02  -6.9298686e+02  -6.2164496e+02  -5.2602047e+02  -4.2387991e+02  -3.2867186e+02  -2.4305859e+02  -1.6291569e+02  -8.4988052e+01  -9.4461970e+00   5.2399456e+01   9.1001633e+01   1.0194181e+02   9.0701786e+01   6.7890882e+01   4.6076168e+01   3.2433516e+01   3.0469668e+01   3.9052677e+01   5.5933630e+01   7.6854917e+01   1.0423568e+02   1.3132028e+02   1.5359204e+02   1.6120219e+02   1.4315765e+02   9.6048488e+01   2.5171987e+01  -5.8986883e+01  -1.3784766e+02  -1.9622852e+02  -2.2399832e+02  -2.1461137e+02  -1.7126458e+02  -1.0047526e+02  -1.3972599e+01   7.3091519e+01   1.4949344e+02   2.0363694e+02   2.2932868e+02   2.2734312e+02   1.9952399e+02   1.5024503e+02   8.5157674e+01   1.0270218e+01  -6.5487717e+01  -1.3197856e+02  -1.7856773e+02  -1.9955552e+02  -1.9310276e+02  -1.6451028e+02  -1.2282154e+02  -7.8831163e+01  -4.1679888e+01  -1.7282630e+01  -6.8595279e+00  -5.8168489e+00  -1.4159899e+01  -2.8524112e+01  -4.9802522e+01  -7.7243008e+01  -1.0580892e+02  -1.2755275e+02  -1.3175320e+02  -1.1461102e+02  -7.9378912e+01  -3.5904112e+01  -6.6780096e-01   1.6503372e+01   1.7817595e+01   7.7356994e+00  -6.2008745e+00  -2.1092843e+01  -4.2020708e+01  -7.2952754e+01  -1.1007702e+02  -1.3833276e+02  -1.4087716e+02  -1.0722879e+02  -4.1879613e+01   3.7745091e+01   1.0999021e+02   1.6223621e+02   1.9052779e+02   2.0230285e+02   2.0593786e+02   2.0185267e+02   1.8398788e+02   1.4757013e+02   9.1196844e+01   2.5384724e+01  -3.9185778e+01  -9.0447126e+01  -1.2445714e+02  -1.3740549e+02  -1.3095741e+02  -1.0188696e+02  -4.9069664e+01   2.2991363e+01   1.0085733e+02   1.6378274e+02   1.9701578e+02   1.9456347e+02   1.6130913e+02   1.1548066e+02   7.1578096e+01   4.0959474e+01   2.4337798e+01   1.9453074e+01   2.4147326e+01   3.9996363e+01   6.4551384e+01   9.5135215e+01   1.2003926e+02   1.3089754e+02   1.1898315e+02   8.9187966e+01   4.9502766e+01   1.0905993e+01  -2.1325233e+01  -4.3762870e+01  -5.8232091e+01  -6.2219859e+01  -5.0031770e+01  -1.5480919e+01   4.5028493e+01   1.2205582e+02   2.0123910e+02   2.6379272e+02   2.9814015e+02   3.0040543e+02   2.7250598e+02   2.1965226e+02   1.4815653e+02   6.5567664e+01  -1.7737934e+01  -9.0287093e+01  -1.3928394e+02  -1.5613947e+02  -1.4250698e+02  -1.0365333e+02  -4.9105480e+01   1.4370660e+01   8.3291826e+01   1.5123162e+02   2.1255971e+02   2.5486592e+02   2.6684458e+02   2.4450509e+02   1.9268812e+02   1.2498206e+02   6.1232242e+01   1.5900030e+01  -9.4507554e+00  -1.7289471e+01  -1.9695544e+01  -2.3293893e+01  -2.9579060e+01  -2.9762463e+01  -1.7358422e+01   1.0234151e+01   4.6900035e+01   7.6519732e+01   8.5102661e+01   6.6323254e+01   2.6549535e+01  -1.5455149e+01  -4.1917474e+01  -3.8269780e+01  -6.9689494e+00   4.4239878e+01   9.7673775e+01   1.4262736e+02   1.7070053e+02   1.8231097e+02   1.7712564e+02   1.5215519e+02   1.0630843e+02   3.7293571e+01  -4.9135705e+01  -1.4147954e+02  -2.2213049e+02  -2.7308424e+02  -2.8243833e+02  -2.5042546e+02  -1.8280250e+02  -9.7521351e+01  -8.7255938e+00   7.0770474e+01   1.3727846e+02   1.8601895e+02   2.1260436e+02   2.1198329e+02   1.7869724e+02   1.1141353e+02   2.1817126e+01  -7.4951918e+01  -1.5805542e+02  -2.1662042e+02  -2.4603963e+02  -2.5170487e+02  -2.4206661e+02  -2.2002745e+02  -1.8178946e+02  -1.2536451e+02  -5.5009974e+01   1.5140236e+01   6.5018842e+01   7.6989564e+01   4.8583888e+01  -4.3280856e+00  -5.8771896e+01  -8.9077107e+01  -8.6200846e+01  -5.6723981e+01  -1.9338291e+01   7.2651900e+00   1.7088092e+01   1.5973262e+01   1.2003075e+01   9.8935894e+00   4.1279582e+00  -1.8384235e+01  -6.6253956e+01  -1.3619292e+02  -2.1014207e+02  -2.6276523e+02  -2.7405683e+02  -2.3978750e+02  -1.7153333e+02  -8.7101362e+01  -5.2630832e+00   6.6176672e+01   1.2583479e+02   1.7249878e+02   2.0088673e+02   2.0213031e+02   1.6773558e+02   9.7860650e+01   6.8607680e+00  -8.8828933e+01  -1.7329308e+02  -2.3896013e+02  -2.8435626e+02  -3.0850786e+02  -3.1177083e+02  -2.8596059e+02  -2.3077359e+02  -1.5060712e+02  -6.0982488e+01   2.0161069e+01   7.5017354e+01   9.9056086e+01   9.3577744e+01   6.6604199e+01   2.6142802e+01  -2.1031482e+01  -6.8851430e+01  -1.0642547e+02  -1.2723961e+02  -1.2588512e+02  -1.0219134e+02  -6.4749824e+01  -2.6924661e+01  -1.5358605e+00   4.5396899e+00  -1.1409588e+01  -4.7112088e+01  -9.3055005e+01  -1.3584180e+02  -1.6111005e+02  -1.6285310e+02  -1.3891383e+02  -1.0338466e+02  -7.0658665e+01  -4.9934456e+01  -3.5068643e+01  -1.3782215e+01   2.7661270e+01   8.9093399e+01   1.4712438e+02   1.7158871e+02   1.4250461e+02   5.8376040e+01  -5.2225339e+01  -1.5574261e+02  -2.2621252e+02  -2.5908971e+02  -2.6702256e+02  -2.6229314e+02  -2.5068851e+02  -2.1966283e+02  -1.5876670e+02  -6.6439158e+01   3.6637575e+01   1.2135122e+02   1.6384505e+02   1.5680560e+02   1.1315074e+02   5.5018956e+01   2.0781359e+00  -3.6714910e+01  -6.1683082e+01  -7.8054441e+01  -8.6368382e+01  -8.8429964e+01  -8.2661190e+01  -7.1805753e+01  -5.9056171e+01  -4.6772501e+01  -3.3030611e+01  -1.8265040e+01  -1.2509466e+00   1.4392688e+01   2.3091841e+01   1.8620894e+01   9.4933370e-01  -2.4157073e+01  -4.2523574e+01  -4.0685470e+01  -1.1527326e+01   4.3685484e+01   1.1390373e+02   1.7942886e+02   2.2239701e+02   2.3135849e+02   2.0467718e+02   1.4849948e+02   7.5112103e+01  -2.3904143e+00  -7.5091056e+01  -1.3773894e+02  -1.8450386e+02  -2.0871084e+02  -2.0626739e+02  -1.7554395e+02  -1.2155586e+02  -5.7409247e+01   5.9054251e+00   5.7180734e+01   9.0853088e+01   1.0675733e+02   1.0449344e+02   8.4188374e+01   4.5535954e+01  -1.1882787e+01  -8.3878395e+01  -1.6031368e+02  -2.2786868e+02  -2.7661969e+02  -2.9717709e+02  -2.9220609e+02  -2.6825966e+02  -2.3497165e+02  -2.0076493e+02  -1.6830862e+02  -1.4299777e+02  -1.2771848e+02  -1.2910778e+02  -1.5042682e+02  -1.9305650e+02  -2.4651384e+02  -2.9479635e+02  -3.2280424e+02  -3.1857795e+02  -2.8512291e+02  -2.3366736e+02  -1.7530200e+02  -1.2406124e+02  -8.5607166e+01  -6.5751448e+01  -6.7081904e+01  -9.0946664e+01  -1.3398941e+02  -1.8833498e+02  -2.4241207e+02  -2.8428752e+02  -3.0829490e+02  -3.1168440e+02  -2.9701191e+02  -2.6302382e+02  -2.1187595e+02  -1.4363385e+02  -6.7122406e+01   8.6977645e+00   6.9568213e+01   1.0768790e+02   1.1709910e+02   9.8477175e+01   5.4193329e+01  -1.0360577e+01  -9.1076178e+01  -1.7984902e+02  -2.6343614e+02  -3.2815052e+02  -3.6212150e+02  -3.5692413e+02  -3.1448691e+02  -2.4530748e+02  -1.6711983e+02  -9.7245663e+01  -5.1910749e+01  -3.7807704e+01  -5.0139635e+01  -7.7292518e+01  -1.0317406e+02  -1.1714137e+02  -1.1533934e+02  -1.0420370e+02  -9.2857820e+01  -8.6155358e+01  -8.8187214e+01  -9.3168154e+01  -9.2731041e+01  -8.0762333e+01  -5.8995180e+01  -3.6620245e+01  -2.8172140e+01  -4.8901279e+01  -1.0275504e+02  -1.8198421e+02  -2.6327797e+02  -3.2223522e+02  -3.3991563e+02  -3.1119556e+02  -2.4868227e+02  -1.6901204e+02  -8.7462039e+01  -1.2922453e+01   5.5613476e+01   1.1579795e+02   1.5962793e+02   1.7580996e+02   1.4955704e+02   8.1676198e+01  -1.6079483e+01  -1.2129763e+02  -2.0962982e+02  -2.6767539e+02  -2.9572244e+02  -3.0406538e+02  -3.0268793e+02  -2.9420500e+02  -2.7107831e+02  -2.2223983e+02  -1.4535253e+02  -4.5995257e+01   5.6932483e+01   1.4133082e+02   1.9737234e+02   2.2526543e+02   2.4136622e+02   2.6480510e+02   3.1087298e+02   3.8944783e+02   5.0572986e+02   6.5949485e+02   8.4898156e+02   1.0604164e+03   1.2710672e+03   1.4456246e+03   1.5506578e+03   1.5608742e+03   1.4769573e+03   1.3178283e+03   1.1142844e+03   8.9607854e+02   6.7860494e+02   4.6743191e+02   2.5494726e+02   3.5369504e+01  -1.8968649e+02  -4.0899572e+02  -6.0188138e+02  -7.4887703e+02  -8.3811434e+02  -8.6971070e+02  -8.6043780e+02  -8.3190732e+02  -8.0542907e+02  -7.8758243e+02  -7.7042332e+02  -7.4113957e+02  -6.8588941e+02  -6.0152375e+02  -4.9290810e+02  -3.7162413e+02  -2.4793094e+02  -1.2998773e+02  -2.5460454e+01   5.9263478e+01   1.1896457e+02   1.5428041e+02   1.6892464e+02   1.7024476e+02   1.5903790e+02   1.2966669e+02   7.3631857e+01  -1.2154193e+01  -1.1310312e+02  -2.0040967e+02  -2.4599927e+02  -2.3381988e+02  -1.7344792e+02  -9.3094867e+01  -2.5202487e+01   1.2118286e+01   2.0527479e+01   1.6524142e+01   1.3960708e+01   1.6922875e+01   1.9007633e+01   1.0139383e+01  -9.8541327e+00  -2.6642212e+01  -2.4508631e+01   3.0228485e+00   4.8175665e+01   9.3531258e+01   1.1716186e+02   1.1308861e+02   8.5806315e+01   4.8600539e+01   1.0414234e+01  -2.8903940e+01  -7.3032183e+01  -1.2723425e+02  -1.8487910e+02  -2.2917402e+02  -2.4482144e+02  -2.2531730e+02  -1.7166411e+02  -9.7367343e+01  -1.5701203e+01   6.4647704e+01   1.3734600e+02   1.9730589e+02   2.3439837e+02   2.4070966e+02   2.1313660e+02   1.5522537e+02   8.3281839e+01   1.0900413e+01  -5.0846256e+01  -1.0126172e+02  -1.4362412e+02  -1.7627445e+02  -1.9202786e+02  -1.7585555e+02  -1.2290691e+02  -3.9049692e+01   5.3816192e+01   1.2538256e+02   1.5622252e+02   1.4453548e+02   1.0623544e+02   6.4385940e+01   3.5098315e+01   1.9101816e+01   4.2485323e+00  -1.9776320e+01  -5.2308102e+01  -7.8969782e+01  -8.1308033e+01  -5.3867844e+01  -5.8761938e+00   3.7223046e+01   5.2113121e+01   2.9576457e+01  -2.0091388e+01  -7.2314193e+01  -1.0808781e+02  -1.1931540e+02  -1.1239956e+02  -9.7815636e+01  -8.2388311e+01  -5.9039209e+01  -1.5860548e+01   5.4517580e+01   1.4317803e+02   2.2959064e+02   2.8643880e+02   2.9429843e+02   2.5288864e+02   1.7868159e+02   9.6762998e+01   2.5957557e+01  -2.7644736e+01  -7.0526583e+01  -1.0965024e+02  -1.4712668e+02  -1.7237937e+02  -1.6861935e+02  -1.2356136e+02  -4.0436228e+01   6.2530895e+01   1.6192052e+02   2.3389883e+02   2.6968756e+02   2.7148966e+02   2.4773190e+02   2.0460272e+02   1.4698286e+02   8.1967118e+01   2.0241244e+01  -2.3402385e+01  -3.7156250e+01  -1.8715213e+01   2.0857411e+01   6.2876769e+01   9.3249784e+01   1.0792665e+02   1.1632204e+02   1.2644424e+02   1.3952450e+02   1.4202879e+02   1.2004562e+02   6.6156194e+01  -7.0122263e+00  -7.2289679e+01  -9.5249227e+01  -6.1035736e+01   2.3425293e+01   1.2789395e+02   2.1989505e+02   2.7723848e+02   2.9472896e+02   2.8277538e+02   2.5062070e+02   2.0297379e+02   1.3892108e+02   5.6116056e+01  -3.5634010e+01  -1.1916261e+02  -1.7283113e+02  -1.8620205e+02  -1.6322361e+02  -1.1473052e+02  -5.6176878e+01   7.3572852e+00   7.4724488e+01   1.4458086e+02   2.0726660e+02   2.4739355e+02   2.5088754e+02   2.1232583e+02   1.4452746e+02   6.8478244e+01   4.7813468e+00  -3.5100161e+01  -5.1512578e+01  -5.2916857e+01  -4.7621076e+01  -3.9832808e+01  -2.8042229e+01  -9.8617712e+00   1.5460523e+01   4.2583768e+01   6.3397910e+01   7.1895816e+01   6.1444359e+01   3.2414371e+01  -6.7560349e+00  -4.5888526e+01  -6.9535525e+01  -7.0323158e+01  -4.5915470e+01  -5.4169607e+00   4.2870653e+01   9.0305255e+01   1.3023255e+02   1.6255653e+02   1.8027537e+02   1.7370761e+02   1.3118137e+02   5.0049436e+01  -5.9993077e+01  -1.7119127e+02  -2.5341117e+02  -2.8394381e+02  -2.5813249e+02  -1.9254713e+02  -1.1050157e+02  -3.3816758e+01   3.0143015e+01   8.4012918e+01   1.3330463e+02   1.8231644e+02   2.2376813e+02   2.4289740e+02   2.2984253e+02   1.8225297e+02   1.1019670e+02   2.9547425e+01  -4.1881135e+01  -9.8148656e+01  -1.3765565e+02  -1.6403367e+02  -1.7632564e+02  -1.6944441e+02  -1.3801844e+02  -8.1834144e+01  -1.2148584e+01   5.0837605e+01   8.7090142e+01   8.3253932e+01   4.5495964e+01  -8.2769107e+00  -5.3670883e+01  -7.5294023e+01  -7.0206968e+01  -4.7071446e+01  -2.1788747e+01  -4.5129547e+00   5.9629101e+00   1.5336481e+01   3.2236569e+01   5.3711569e+01   6.7492122e+01   5.2790906e+01  -1.5174258e+00  -9.0385634e+01  -1.8968334e+02  -2.6570993e+02  -2.9287601e+02  -2.6326332e+02  -1.9078870e+02  -9.9759461e+01  -1.3708779e+01   5.8480374e+01   1.1803285e+02   1.7009079e+02   2.1558222e+02   2.4484245e+02   2.4271913e+02   1.9997456e+02   1.1791345e+02   1.3291224e+01  -8.9323377e+01  -1.6846825e+02  -2.0968071e+02  -2.1205931e+02  -1.8524620e+02  -1.3767846e+02  -7.9078404e+01  -1.0277461e+01   6.4422241e+01   1.3907221e+02   2.0078426e+02   2.3504150e+02   2.3640657e+02   2.0452541e+02   1.5444658e+02   1.0039128e+02   5.3201733e+01   1.6745526e+01  -8.4436403e+00  -2.3054937e+01  -2.3271625e+01  -4.3885674e+00   3.3143465e+01   7.6064477e+01   1.0879214e+02   1.1177322e+02   8.0449552e+01   2.1656816e+01  -4.2623025e+01  -9.2119279e+01  -1.1159239e+02  -1.0038405e+02  -6.7920045e+01  -2.5892324e+01   1.8101276e+01   6.2589930e+01   1.1295004e+02   1.6870747e+02   2.2321383e+02   2.5841915e+02   2.5644186e+02   2.0966521e+02   1.2516453e+02   2.4379650e+01  -6.5928401e+01  -1.2627701e+02  -1.5236426e+02  -1.4996759e+02  -1.2953134e+02  -9.4184547e+01  -4.1023771e+01   3.6384623e+01   1.3620014e+02   2.4500548e+02   3.4272828e+02   4.1147498e+02   4.4098218e+02   4.3045726e+02   3.8768366e+02   3.2038952e+02   2.3900129e+02   1.5400325e+02   7.9186595e+01   2.8084062e+01   9.8491291e+00   2.2757645e+01   5.7399561e+01   9.6507739e+01   1.3026154e+02   1.5182210e+02   1.6082001e+02   1.6052823e+02   1.5451218e+02   1.4564478e+02   1.3248848e+02   1.1716106e+02   1.0089439e+02   8.3551833e+01   6.7379051e+01   5.5222708e+01   5.3370014e+01   6.8052354e+01   9.9537877e+01   1.3963160e+02   1.7232561e+02   1.7831039e+02   1.4407637e+02   7.1401011e+01  -2.2881751e+01  -1.1681059e+02  -1.8878560e+02  -2.2938005e+02  -2.4317936e+02  -2.3934195e+02  -2.2261904e+02  -1.9265716e+02  -1.4152367e+02  -6.7524447e+01   2.3501073e+01   1.1213450e+02   1.7426866e+02   1.9362914e+02   1.6768412e+02   1.0780023e+02   3.0626745e+01  -4.5183045e+01  -1.1269704e+02  -1.6858848e+02  -2.0986993e+02  -2.3219720e+02  -2.3053951e+02  -2.0212164e+02  -1.5266757e+02  -9.2092277e+01  -3.3879009e+01   1.0571817e+01   3.6336911e+01   3.9872203e+01   1.9277773e+01  -2.2105549e+01  -7.7680898e+01  -1.3497228e+02  -1.7513714e+02  -1.8633590e+02  -1.6770711e+02  -1.3076858e+02  -9.1168845e+01  -5.6830498e+01  -2.9637468e+01  -2.9014398e+00   2.3113950e+01   3.6339963e+01   1.7503325e+01  -4.3943015e+01  -1.4056647e+02  -2.4526662e+02  -3.1993864e+02  -3.4020915e+02  -3.0394615e+02  -2.3227811e+02  -1.5293571e+02  -8.4841466e+01  -3.1998554e+01   1.4151631e+01   5.9642034e+01   9.9853546e+01   1.2104338e+02   1.0927633e+02   6.2603698e+01  -1.1542804e+01  -9.1645152e+01  -1.6187270e+02  -2.1304762e+02  -2.4448511e+02  -2.5841360e+02  -2.5575169e+02  -2.3412638e+02  -1.8614352e+02  -1.1304472e+02  -2.5983821e+01   5.3784077e+01   1.0349917e+02   1.0901888e+02   7.0290108e+01   6.1109950e+00  -5.7756640e+01  -9.7951888e+01  -1.0610527e+02  -8.9369199e+01  -6.1618067e+01  -3.9109872e+01  -2.8499829e+01  -2.5213130e+01  -2.2298830e+01  -9.9791623e+00   9.8363549e+00   2.7796896e+01   2.8882919e+01   5.5632478e-01  -5.5749959e+01  -1.2772278e+02  -1.9465380e+02  -2.3305925e+02  -2.3114626e+02  -1.9185861e+02  -1.2930398e+02  -5.9468652e+01   8.7523112e+00   7.6062083e+01   1.5056414e+02   2.3456156e+02   3.1705115e+02   3.8365610e+02   4.2183064e+02   4.3429001e+02   4.4074699e+02   4.7415205e+02   5.6171805e+02   7.1304763e+02   9.1566570e+02   1.1381938e+03   1.3382975e+03   1.4814113e+03   1.5461191e+03   1.5289589e+03   1.4373582e+03   1.2883824e+03   1.0950178e+03   8.6378998e+02   5.9663098e+02   2.9703717e+02  -2.2324951e+01  -3.3931613e+02  -6.2203092e+02  -8.4322339e+02  -9.8621604e+02  -1.0501494e+03  -1.0465471e+03  -9.9329147e+02  -9.0620511e+02  -8.0250313e+02  -6.9839741e+02  -6.0510620e+02  -5.2844689e+02  -4.6608409e+02  -4.0638679e+02  -3.3773827e+02  -2.5605954e+02  -1.6826698e+02  -8.6393547e+01  -2.2160592e+01   2.6117722e+01   6.5297432e+01   1.0471730e+02   1.4384272e+02   1.6996041e+02   1.6662858e+02   1.2162272e+02   3.6199765e+01  -7.2383981e+01  -1.8103941e+02  -2.7051644e+02  -3.3231382e+02  -3.6451545e+02  -3.7124994e+02  -3.5352882e+02  -3.0731961e+02  -2.3383486e+02  -1.3414694e+02  -2.1350071e+01   8.9435350e+01   1.7789433e+02   2.2489194e+02   2.2117379e+02   1.6828719e+02   7.8747000e+01  -2.5406540e+01  -1.1641206e+02  -1.7765180e+02  -2.0126946e+02  -1.9428107e+02  -1.7000801e+02  -1.4077895e+02  -1.1397233e+02  -9.0581374e+01  -6.8562098e+01  -4.6256651e+01  -2.8165820e+01  -1.5278366e+01  -1.2064176e+01  -1.6118347e+01  -2.4328639e+01  -3.6345725e+01  -4.7082987e+01  -5.4968989e+01  -5.3719829e+01  -3.8485907e+01  -4.3393163e+00   3.9812315e+01   8.1696136e+01   1.0126636e+02   8.8131442e+01   4.1552620e+01  -2.7177884e+01  -1.0006504e+02  -1.5940923e+02  -1.9732030e+02  -2.1550035e+02  -2.1299669e+02  -1.8762580e+02  -1.3481888e+02  -5.1733370e+01   5.4404452e+01   1.6463213e+02   2.5405162e+02   3.0481015e+02   3.1094090e+02   2.8076417e+02   2.2962007e+02   1.6681305e+02   9.3777629e+01   6.6018798e+00  -8.9849882e+01  -1.7891012e+02  -2.3385797e+02  -2.3416709e+02  -1.7705819e+02  -8.5280076e+01   4.8281130e+00   6.4822339e+01   8.4927248e+01   7.6795238e+01   6.6956931e+01   7.3726893e+01   9.6426768e+01   1.1990739e+02   1.2447278e+02   1.0141093e+02   5.8401377e+01   1.6086951e+01  -6.9360398e+00   2.4678176e+00   3.8222337e+01   8.5901997e+01   1.2804528e+02   1.5167633e+02   1.5175363e+02   1.2927611e+02   9.0836803e+01   4.5511284e+01   4.0864833e+00  -2.7246440e+01  -4.2513278e+01  -4.1610548e+01  -2.4698442e+01   8.9204113e+00   5.8605542e+01   1.2592118e+02   2.0484452e+02   2.8245326e+02   3.4081971e+02   3.6379967e+02   3.4441625e+02   2.8760255e+02   2.0717061e+02   1.1900111e+02   3.5577182e+01  -3.5905630e+01  -9.1550033e+01  -1.2456496e+02  -1.2358022e+02  -8.1258860e+01   8.8663452e-01   1.0743671e+02   2.1360474e+02   2.9611661e+02   3.3911970e+02   3.4281033e+02   3.1952006e+02   2.8309572e+02   2.4452915e+02   2.0691873e+02   1.6995622e+02   1.3220869e+02   9.9494832e+01   7.9632563e+01   7.7765335e+01   9.2369975e+01   1.1592773e+02   1.3912341e+02   1.5234585e+02   1.5621184e+02   1.5483371e+02   1.5259859e+02   1.4831658e+02   1.3570838e+02   1.1232316e+02   7.8080032e+01   4.7697554e+01   3.4297623e+01   5.1444392e+01   9.7803699e+01   1.6350263e+02   2.3314506e+02   2.9332288e+02   3.3537220e+02   3.5707588e+02   3.5301655e+02   3.1333875e+02   2.3677460e+02   1.2790972e+02   6.7945202e+00  -9.8882753e+01  -1.6176797e+02  -1.6863724e+02  -1.2472165e+02  -4.9340745e+01   3.3262874e+01   1.0686453e+02   1.6682359e+02   2.2102185e+02   2.7386126e+02   3.2499962e+02   3.6054781e+02   3.6354309e+02   3.1963331e+02   2.3203780e+02   1.2196880e+02   2.1783931e+01  -3.9819841e+01  -4.8272811e+01  -1.0024776e+01   5.2270574e+01   1.1228958e+02   1.5017801e+02   1.6008194e+02   1.4779182e+02   1.2520747e+02   1.0336804e+02   8.6871551e+01   7.4619543e+01   6.1943258e+01   4.7278405e+01   3.4635681e+01   3.3150670e+01   5.3982582e+01   9.9769150e+01   1.6274608e+02   2.2452013e+02   2.6536716e+02   2.7683001e+02   2.6333357e+02   2.4052652e+02   2.1810121e+02   1.9393121e+02   1.5248093e+02   8.0568201e+01  -1.5326305e+01  -1.0792695e+02  -1.5889646e+02  -1.4014010e+02  -5.2452903e+01   7.6610950e+01   2.0463902e+02   3.0089616e+02   3.5825220e+02   3.8719260e+02   4.0158805e+02   4.0693645e+02   3.9687756e+02   3.5889889e+02   2.9028456e+02   2.0148191e+02   1.1015469e+02   3.6241464e+01  -9.6676330e+00  -2.3378343e+01  -8.4056773e+00   2.9480728e+01   8.2385041e+01   1.4388238e+02   2.0580474e+02   2.5790969e+02   2.9515215e+02   3.1135261e+02   3.0516425e+02   2.8236385e+02   2.5060942e+02   2.1989891e+02   2.0301321e+02   2.0322579e+02   2.1851159e+02   2.4339511e+02   2.6946303e+02   2.9244581e+02   3.1267013e+02   3.2461575e+02   3.2328989e+02   2.9716167e+02   2.4047580e+02   1.5787250e+02   6.9364254e+01  -1.1652363e+00  -3.2686141e+01  -1.7673315e+01   3.2608821e+01   1.0442173e+02   1.8160362e+02   2.6236839e+02   3.4573641e+02   4.2837366e+02   4.9854135e+02   5.3983617e+02   5.3443087e+02   4.7560531e+02   3.7447253e+02   2.5193712e+02   1.3204943e+02   3.5019084e+01  -2.6792732e+01  -5.1579773e+01  -4.3223425e+01  -5.6748799e+00   5.8466002e+01   1.4409566e+02   2.4227826e+02   3.4016240e+02   4.1982492e+02   4.6874209e+02   4.7965471e+02   4.5770033e+02   4.1281103e+02   3.6050010e+02   3.1126171e+02   2.7187018e+02   2.4187616e+02   2.2455805e+02   2.2250149e+02   2.3786784e+02   2.7228876e+02   3.1521361e+02   3.5145776e+02   3.6666467e+02   3.5141171e+02   3.0675453e+02   2.4510558e+02   1.8246253e+02   1.3912021e+02   1.2809414e+02   1.5953896e+02   2.3145022e+02   3.3289256e+02   4.4290828e+02   5.4014341e+02   6.0610245e+02   6.3583204e+02   6.3375425e+02   6.1133921e+02   5.7332767e+02   5.2028541e+02   4.4638031e+02   3.4840193e+02   2.3217104e+02   1.1958947e+02   3.7644054e+01   1.0688512e+01   4.8284235e+01   1.4078995e+02   2.6176850e+02   3.8414485e+02   4.8292641e+02   5.4920603e+02   5.8712283e+02   6.0146603e+02   5.9266846e+02   5.5704002e+02   4.9121810e+02   3.9994225e+02   2.9637019e+02   2.0422525e+02   1.4308754e+02   1.1711117e+02   1.1937181e+02   1.3493684e+02   1.5062500e+02   1.6430344e+02   1.8048000e+02   2.0390114e+02   2.2886954e+02   2.4104962e+02   2.2762243e+02   1.8476974e+02   1.2758750e+02   7.7631197e+01   5.6363055e+01   7.3788427e+01   1.2253704e+02   1.8556603e+02   2.4655167e+02   2.9391329e+02   3.2429935e+02   3.3627931e+02   3.2594412e+02   2.9212800e+02   2.3302429e+02   1.5606931e+02   7.3092239e+01  -3.1447376e+00  -5.8784373e+01  -8.7790787e+01  -8.6625138e+01  -5.2397345e+01   1.4706194e+01   1.0980101e+02   2.2343836e+02   3.3831845e+02   4.3331024e+02   4.9345372e+02   5.1162201e+02   4.8857655e+02   4.3424865e+02   3.5720743e+02   2.6640803e+02   1.7143084e+02   8.0503414e+01   1.0629746e+01  -2.6872153e+01  -2.4194068e+01   1.3896221e+01   7.4737661e+01   1.4207279e+02   2.0172359e+02   2.4735147e+02   2.8099839e+02   3.0214971e+02   3.0914795e+02   2.9790177e+02   2.6696003e+02   2.2213069e+02   1.7690318e+02   1.4696468e+02   1.4008142e+02   1.5254915e+02   1.7631332e+02   1.9873835e+02   2.1288805e+02   2.2008566e+02   2.2346928e+02   2.2025590e+02   2.0747595e+02   1.7703031e+02   1.3104066e+02   7.8588264e+01   3.2046250e+01   5.2863281e+00   4.0685206e+00   2.6897588e+01   6.6555229e+01   1.1740602e+02   1.7744516e+02   2.4293046e+02   3.0534018e+02   3.5534041e+02   3.7843941e+02   3.6205554e+02   3.0581921e+02   2.1605441e+02   1.1352014e+02   1.9613010e+01  -4.6678957e+01  -7.7741703e+01  -7.3904519e+01  -4.4365640e+01  -2.3334007e+00   4.6627087e+01   9.9920896e+01   1.6069424e+02   2.2674923e+02   2.9128446e+02   3.3917786e+02   3.5561081e+02   3.3194799e+02   2.7291514e+02   1.9923635e+02   1.3898199e+02   1.1692375e+02   1.4418636e+02   2.1942861e+02   3.2568898e+02   4.4091171e+02   5.4904700e+02   6.4251725e+02   7.2777632e+02   8.1867263e+02   9.3036215e+02   1.0685979e+03   1.2293340e+03   1.3967062e+03   1.5465622e+03   1.6608021e+03   1.7258229e+03   1.7393527e+03   1.7078933e+03   1.6378897e+03   1.5366183e+03   1.4056628e+03   1.2377387e+03   1.0265675e+03   7.6348183e+02   4.5248726e+02   1.0658938e+02  -2.4268182e+02  -5.5948736e+02  -8.0844645e+02  -9.6667467e+02  -1.0267652e+03  -9.9839250e+02  -9.0227899e+02  -7.6036813e+02  -5.9217908e+02  -4.1045016e+02  -2.2529534e+02  -4.6175481e+01   1.1698653e+02   2.4824425e+02   3.3339586e+02   3.6597076e+02   3.5045574e+02   3.0290718e+02   2.4619603e+02   2.0018911e+02   1.7417469e+02   1.6779264e+02   1.7063734e+02   1.7558260e+02   1.8075128e+02   1.8794132e+02   1.9924334e+02   2.1055423e+02   2.1471457e+02   2.0406685e+02   1.7433735e+02   1.3586703e+02   1.0433381e+02   9.6201482e+01   1.1918082e+02   1.7098865e+02   2.3963940e+02   3.1041132e+02   3.7150993e+02   4.1832752e+02   4.4808891e+02   4.5960204e+02   4.4980650e+02   4.1484290e+02   3.5544241e+02   2.7454955e+02   1.8322063e+02   9.2964747e+01   1.6791984e+01  -3.4712911e+01  -5.0972132e+01  -2.6386011e+01   4.0474238e+01   1.4349275e+02   2.6736008e+02   3.9243540e+02   4.9382144e+02   5.5731868e+02   5.7494504e+02   5.4978013e+02   4.8700406e+02   3.9913474e+02   2.9559762e+02   1.9087110e+02   1.0251638e+02   4.8415464e+01   3.9500775e+01   7.5173294e+01   1.3948654e+02   2.0904415e+02   2.6143815e+02   2.8696753e+02   2.8633302e+02   2.7401535e+02   2.6210400e+02   2.5844463e+02   2.6109463e+02   2.6619954e+02   2.6750424e+02   2.6377631e+02   2.6043282e+02   2.6362372e+02   2.7794257e+02   3.0582205e+02   3.3954762e+02   3.6971125e+02   3.8184432e+02   3.6693429e+02   3.2354489e+02   2.5632595e+02   1.7680334e+02   1.0046446e+02   3.9278631e+01   8.9408993e-01  -1.0186236e+01   7.8625845e+00   5.4215356e+01   1.2516404e+02   2.1868145e+02   3.2170501e+02   4.2194311e+02   4.9991595e+02   5.4090148e+02   5.3846866e+02   4.9734665e+02   4.2848583e+02   3.4929928e+02   2.7120671e+02   1.9971766e+02   1.3636456e+02   8.1818869e+01   4.3491383e+01   3.1834665e+01   5.6447912e+01   1.1795118e+02   2.0246893e+02   2.9046494e+02   3.6261613e+02   4.0641299e+02   4.1922628e+02   4.0767569e+02   3.7925833e+02   3.4432351e+02   3.1359021e+02   2.9248054e+02   2.8656927e+02   2.9442397e+02   3.0803758e+02   3.2094722e+02   3.2700865e+02   3.2867878e+02   3.2956698e+02   3.3296764e+02   3.3308882e+02   3.2074572e+02   2.9038152e+02   2.4139873e+02   1.8690770e+02   1.4510515e+02   1.3056584e+02   1.4475122e+02   1.8500724e+02   2.4024259e+02   3.0036504e+02   3.6242318e+02   4.1927826e+02   4.6553740e+02   4.8842863e+02   4.7930347e+02   4.3350911e+02   3.5447449e+02   2.5698324e+02   1.5974091e+02   7.8461486e+01   2.2779252e+01  -1.6782813e+00   2.2537595e+00   3.4526641e+01   9.0948800e+01   1.6606159e+02   2.5467077e+02   3.4577878e+02   4.2560009e+02   4.7933176e+02   4.9639678e+02   4.7296931e+02   4.1671343e+02   3.4179962e+02   2.6338305e+02   1.9381456e+02   1.3989540e+02   1.0347214e+02   8.6604265e+01   8.9432583e+01   1.1275279e+02   1.5217420e+02   1.9664284e+02   2.2804631e+02   2.3260652e+02   2.0480673e+02   1.5268504e+02   9.7440944e+01   5.9426037e+01   4.8701931e+01   6.4427813e+01   9.2373358e+01   1.2083392e+02   1.4815624e+02   1.7897705e+02   2.2115219e+02   2.7423034e+02   3.2122686e+02   3.4039543e+02   3.1268830e+02   2.3764407e+02   1.3353409e+02   3.0722452e+01  -4.7673022e+01  -8.8611259e+01  -1.0015728e+02  -9.3379257e+01  -7.8801313e+01  -5.6169137e+01  -1.7397545e+01   4.4297351e+01   1.2594518e+02   2.1379940e+02   2.8342804e+02   3.1758112e+02   3.0553636e+02   2.5471306e+02   1.7946481e+02   9.9098333e+01   3.0291828e+01  -1.9817295e+01  -4.9554739e+01  -6.5325770e+01  -6.9666235e+01  -6.8569511e+01  -5.9055069e+01  -3.8075210e+01  -1.9663698e+00   4.9273680e+01   1.0557714e+02   1.4998923e+02   1.6424244e+02   1.3963222e+02   8.5229565e+01   2.5584169e+01  -9.8382903e+00  -3.1940228e+00   4.4511165e+01   1.1173379e+02   1.7037707e+02   2.0145944e+02   2.0135548e+02   1.8239279e+02   1.5952121e+02   1.3875298e+02   1.1410762e+02   7.5877572e+01   1.5146269e+01  -6.1379975e+01  -1.3904471e+02  -1.9714531e+02  -2.2274995e+02  -2.1011735e+02  -1.6247091e+02  -9.1983555e+01  -7.9591326e+00   7.8668996e+01   1.5828740e+02   2.2068825e+02   2.5795461e+02   2.6383954e+02   2.3641513e+02   1.7988680e+02   1.0460491e+02   2.3436556e+01  -5.1235413e+01  -1.1356048e+02  -1.5698499e+02  -1.7745329e+02  -1.7286173e+02  -1.4070785e+02  -8.7011632e+01  -2.1704869e+01   4.1229613e+01   8.7551136e+01   1.1318687e+02   1.2305867e+02   1.2218738e+02   1.1507791e+02   1.0251297e+02   7.9984302e+01   4.9050144e+01   1.7915998e+01   2.4924887e+00   1.2095877e+01   4.7840632e+01   9.9647863e+01   1.4768251e+02   1.7495430e+02   1.7278603e+02   1.4087498e+02   8.6743669e+01   2.2483325e+01  -4.0180441e+01  -9.0349111e+01  -1.1869218e+02  -1.2016548e+02  -9.4402338e+01  -4.4523595e+01   2.2791860e+01   1.0201036e+02   1.8512252e+02   2.6148340e+02   3.1981652e+02   3.4905214e+02   3.3869244e+02   2.8947137e+02   2.0919056e+02   1.1274856e+02   1.6513155e+01  -6.7704385e+01  -1.3174800e+02  -1.7295162e+02  -1.8441595e+02  -1.6052654e+02  -9.9636495e+01  -7.9750071e+00   9.8031034e+01   1.9774103e+02   2.7226236e+02   3.1307069e+02   3.2203189e+02   3.1167270e+02   2.9167615e+02   2.6770881e+02   2.3679728e+02   1.9654432e+02   1.5149518e+02   1.1393379e+02   1.0130720e+02   1.2236374e+02   1.7396358e+02   2.3640114e+02   2.8599043e+02   3.0461898e+02   2.8898418e+02   2.4728420e+02   1.9523448e+02   1.4440266e+02   9.8978475e+01   6.5198206e+01   4.8707905e+01   5.7165024e+01   9.7339786e+01   1.6189330e+02   2.3689259e+02   3.0499340e+02   3.5110294e+02   3.7124688e+02   3.6932335e+02   3.4643953e+02   2.9959193e+02   2.2355815e+02   1.1699896e+02  -8.0975097e+00  -1.2838590e+02  -2.1623172e+02  -2.5554150e+02  -2.4105464e+02  -1.8388395e+02  -9.6213317e+01   5.8003140e+00   1.1274390e+02   2.1100601e+02   2.8584325e+02   3.2012335e+02   3.0846899e+02   2.5562694e+02   1.7601700e+02   8.9550729e+01   9.9291708e+00  -5.5288121e+01  -1.0651821e+02  -1.3859149e+02  -1.4556142e+02  -1.2176892e+02  -6.9173137e+01  -5.0857362e+00   4.9454150e+01   7.8368558e+01   7.7991832e+01   5.7029787e+01   3.0863489e+01   8.1529668e+00  -1.1177601e+01  -3.0381241e+01  -4.7487688e+01  -5.3764161e+01  -3.8764627e+01   5.2324233e+00   6.8488582e+01   1.3473825e+02   1.8063342e+02   1.9645103e+02   1.8076081e+02   1.4475365e+02   9.6983437e+01   4.0373724e+01  -2.4535107e+01  -9.6991189e+01  -1.6786747e+02  -2.1962930e+02  -2.3510549e+02  -2.0376185e+02  -1.3025541e+02  -3.0164018e+01   7.4077903e+01   1.6487463e+02   2.2952706e+02   2.6532357e+02   2.7232677e+02   2.5356877e+02   2.1146362e+02   1.4937452e+02   7.1411388e+01  -1.2339946e+01  -9.0864909e+01  -1.5320897e+02  -1.8908753e+02  -1.9086346e+02  -1.6074749e+02  -1.0120792e+02  -2.4709111e+01   5.5992853e+01   1.2569767e+02   1.7143487e+02   1.8868353e+02   1.7994075e+02   1.5455882e+02   1.2289980e+02   9.5975335e+01   7.8827177e+01   7.1947097e+01   7.2023728e+01   7.7243137e+01   8.7268576e+01   1.0190202e+02   1.1930660e+02   1.3656708e+02   1.4630249e+02   1.4003320e+02   1.1304497e+02   6.4579404e+01   1.2979253e+00  -6.3904872e+01  -1.1554584e+02  -1.3837824e+02  -1.2508194e+02  -7.6520169e+01   6.6710683e-01   9.4254049e+01   1.9039325e+02   2.7721149e+02   3.4078512e+02   3.6917649e+02   3.5719708e+02   3.0460427e+02   2.2053010e+02   1.1806420e+02   1.4052613e+01  -7.4697168e+01  -1.3251727e+02  -1.4494855e+02  -1.0244627e+02  -2.4515114e+00   1.4933670e+02   3.3452109e+02   5.3429408e+02   7.3423089e+02   9.3028595e+02   1.1266611e+03   1.3232422e+03   1.5083776e+03   1.6558892e+03   1.7343353e+03   1.7216732e+03   1.6235709e+03   1.4636660e+03   1.2830807e+03   1.1094468e+03   9.5160093e+02   7.9399180e+02   6.0971020e+02   3.8094625e+02   1.0759940e+02  -1.8425663e+02  -4.6132649e+02  -6.8865949e+02  -8.4991630e+02  -9.4129546e+02  -9.7496061e+02  -9.6071560e+02  -9.0962773e+02  -8.2330181e+02  -7.0356554e+02  -5.5242525e+02  -3.7927715e+02  -1.9748868e+02  -2.6577532e+01   1.1371091e+02   2.0810200e+02   2.4797280e+02   2.3080426e+02   1.6681264e+02   7.1803719e+01  -3.3575387e+01  -1.2691065e+02  -1.9008834e+02  -2.1402014e+02  -1.9474549e+02  -1.3873188e+02  -5.6324342e+01   3.8565123e+01   1.2831343e+02   1.9868544e+02   2.3983592e+02   2.5089370e+02   2.3687952e+02   2.0782207e+02   1.7207103e+02   1.3293890e+02   9.1912895e+01   5.1744983e+01   1.7742421e+01  -3.4591850e+00  -5.4466321e+00   1.3170343e+01   4.4651916e+01   7.9538419e+01   1.0631477e+02   1.1902572e+02   1.1755196e+02   1.0732127e+02   9.1332172e+01   7.3492540e+01   5.4398650e+01   3.6781574e+01   2.2908157e+01   2.1233935e+01   3.9561545e+01   8.2870075e+01   1.4786178e+02   2.2114447e+02   2.8285281e+02   3.1442956e+02   3.0525394e+02   2.5682429e+02   1.7827386e+02   8.6109733e+01  -6.8038338e+00  -8.8865729e+01  -1.5170492e+02  -1.8917287e+02  -1.9603080e+02  -1.7104692e+02  -1.1431315e+02  -3.2718303e+01   6.3346970e+01   1.5685033e+02   2.3224670e+02   2.7453393e+02   2.7990554e+02   2.5273631e+02   2.0474736e+02   1.4933169e+02   9.3158975e+01   4.0295150e+01  -1.0851015e+01  -5.9417902e+01  -9.6513608e+01  -1.1294978e+02  -1.0018398e+02  -5.9502406e+01  -1.6018175e+00   5.7172003e+01   1.0261897e+02   1.2920306e+02   1.3703883e+02   1.2818831e+02   1.0823403e+02   8.2221688e+01   5.5176711e+01   3.7472160e+01   3.7348991e+01   5.9860825e+01   9.8437076e+01   1.4414689e+02   1.8261868e+02   2.0645190e+02   2.1286616e+02   2.0128771e+02   1.7158004e+02   1.2268455e+02   5.3538377e+01  -2.8737608e+01  -1.0925885e+02  -1.6917392e+02  -1.9253585e+02  -1.7192620e+02  -1.0954590e+02  -1.8572293e+01   8.6297546e+01   1.8806041e+02   2.7319306e+02   3.3372724e+02   3.6327851e+02   3.5969742e+02   3.2707071e+02   2.7290543e+02   2.0146190e+02   1.1834128e+02   2.8554863e+01  -5.8612961e+01  -1.3060433e+02  -1.7013023e+02  -1.6401403e+02  -1.1321106e+02  -3.3015998e+01   5.5396320e+01   1.2884339e+02   1.7710352e+02   2.0365281e+02   2.1988839e+02   2.3364835e+02   2.4496186e+02   2.4409556e+02   2.1908180e+02   1.6800007e+02   1.0332022e+02   4.5600097e+01   1.4762656e+01   2.2071823e+01   5.7799721e+01   1.0145480e+02   1.2933926e+02   1.2714599e+02   9.8297952e+01   5.6778366e+01   2.0291569e+01  -3.2866870e+00  -1.8082148e+01  -3.4817718e+01  -5.5552100e+01  -7.0251130e+01  -6.2904845e+01  -1.5977157e+01   6.6911789e+01   1.6504003e+02   2.4721503e+02   2.8771966e+02   2.8025136e+02   2.3452765e+02   1.6728210e+02   8.9472321e+01   5.6509759e+00  -8.4411247e+01  -1.7663634e+02  -2.5777946e+02  -3.0945514e+02  -3.1872254e+02  -2.8197397e+02  -2.0798561e+02  -1.1312585e+02  -1.0854930e+01   8.6235792e+01   1.6852362e+02   2.2825271e+02   2.5592753e+02   2.4798629e+02   2.1066133e+02   1.5306996e+02   8.9707363e+01   3.0609372e+01  -1.7496583e+01  -5.1738965e+01  -6.9092830e+01  -6.8659715e+01  -4.6208523e+01  -6.0791535e+00   4.1340220e+01   8.4278808e+01   1.0808701e+02   1.0930647e+02   9.2113825e+01   6.7060642e+01   4.5158611e+01   3.2478340e+01   3.1518630e+01   4.2646470e+01   6.2898233e+01   9.1371065e+01   1.2933059e+02   1.7403480e+02   2.1714643e+02   2.4749902e+02   2.5291431e+02   2.2475332e+02   1.6392260e+02   7.8145343e+01  -1.6570480e+01  -1.0419924e+02  -1.7250605e+02  -2.1310763e+02  -2.2645012e+02  -2.1137650e+02  -1.6902141e+02  -1.0087864e+02  -9.0222425e+00   9.5398774e+01   1.9515314e+02   2.7008751e+02   3.0310738e+02   2.8966220e+02   2.3750054e+02   1.6258231e+02   8.3174211e+01   9.2878101e+00  -5.5273874e+01  -1.0893556e+02  -1.5010321e+02  -1.7237066e+02  -1.6599478e+02  -1.2658154e+02  -5.9058981e+01   2.2866667e+01   1.0049169e+02   1.5581719e+02   1.7787802e+02   1.6647386e+02   1.2718717e+02   7.4700986e+01   2.4553039e+01  -7.4368446e+00  -1.0773365e+01   1.8371633e+01   7.0329786e+01   1.2577708e+02   1.6428080e+02   1.7346073e+02   1.5156058e+02   1.1014915e+02   6.6642488e+01   3.4365578e+01   1.2948126e+01  -6.0366030e+00  -3.2150228e+01  -7.1718614e+01  -1.1574614e+02  -1.4679447e+02  -1.4750393e+02  -1.0549045e+02  -2.3451846e+01   8.2552855e+01   1.8654885e+02   2.6759163e+02   3.1090309e+02   3.1585322e+02   2.9046492e+02   2.4619635e+02   1.9387275e+02   1.3577832e+02   7.2056540e+01   3.6791006e+00  -6.3686850e+01  -1.1856965e+02  -1.4504175e+02  -1.3231779e+02  -8.2520359e+01  -6.6699127e+00   7.4916591e+01   1.4253957e+02   1.8601701e+02   2.0325408e+02   1.9722790e+02   1.7623811e+02   1.4340250e+02   1.0250829e+02   6.0438262e+01   2.5461814e+01   7.6994947e+00   1.4034157e+01   4.0658728e+01   7.8334857e+01   1.1330782e+02   1.3570521e+02   1.4315932e+02   1.3735217e+02   1.2119465e+02   9.2415164e+01   5.1437674e+01  -4.4450683e+00  -6.5469485e+01  -1.1713343e+02  -1.4096039e+02  -1.2398207e+02  -6.3668223e+01   2.8876607e+01   1.3250664e+02   2.2934059e+02   3.0557749e+02   3.5553032e+02   3.7654192e+02   3.7046256e+02   3.3943614e+02   2.8185385e+02   2.0147120e+02   1.0582120e+02   7.1744135e+00  -7.4627816e+01  -1.2411940e+02  -1.3162233e+02  -9.7901695e+01  -3.2963108e+01   4.9966974e+01   1.3410387e+02   2.1113301e+02   2.7426971e+02   3.2001625e+02   3.4433696e+02   3.4607371e+02   3.2655355e+02   2.8947665e+02   2.3929185e+02   1.8234955e+02   1.2315306e+02   6.8006427e+01   2.3281294e+01  -5.5859846e+00  -1.3386105e+01   1.3862694e-01   2.6894557e+01   5.3064614e+01   6.3464546e+01   4.8379213e+01   5.7254519e+00  -5.1489685e+01  -1.0631932e+02  -1.3842804e+02  -1.3676271e+02  -1.0403572e+02  -5.3743486e+01  -4.5217381e+00   3.2245958e+01   5.5518670e+01   7.5215508e+01   9.7091261e+01   1.1955113e+02   1.2608824e+02   9.7086645e+01   2.0834601e+01  -9.6274877e+01  -2.2824285e+02  -3.4342950e+02  -4.1767062e+02  -4.4120110e+02  -4.1906949e+02  -3.6280838e+02  -2.8124641e+02  -1.8248784e+02  -7.4222075e+01   3.2365311e+01   1.2074324e+02   1.7690281e+02   1.9364508e+02   1.7408983e+02   1.2633561e+02   6.1342000e+01  -1.3768382e+01  -9.2697725e+01  -1.6691753e+02  -2.2625033e+02  -2.6183606e+02  -2.6733964e+02  -2.4738787e+02  -2.1035535e+02  -1.6872860e+02  -1.3234564e+02  -1.0582405e+02  -9.0451918e+01  -8.6729552e+01  -9.3631817e+01  -1.0953115e+02  -1.2960374e+02  -1.4445487e+02  -1.4566126e+02  -1.2494265e+02  -8.4741692e+01  -3.2096488e+01   1.7182205e+01   4.7891742e+01   5.1136020e+01   2.1040201e+01  -3.5827866e+01  -1.0859395e+02  -1.8594251e+02  -2.5875750e+02  -3.2145202e+02  -3.7077832e+02  -4.0482277e+02  -4.1885271e+02  -4.0470039e+02  -3.5844231e+02  -2.8024537e+02  -1.7838983e+02  -6.9614942e+01   2.9952479e+01   1.0695522e+02   1.5070098e+02   1.5848991e+02   1.3015996e+02   6.8764619e+01  -2.0561670e+01  -1.2836180e+02  -2.3994945e+02  -3.3649668e+02  -4.0177969e+02  -4.2730681e+02  -4.1065922e+02  -3.5700754e+02  -2.7790501e+02  -1.8857666e+02  -1.0500379e+02  -4.2131639e+01  -1.0499635e+01  -1.2515555e+01  -3.6479144e+01  -6.9329161e+01  -9.8961625e+01  -1.1887005e+02  -1.3080529e+02  -1.4215353e+02  -1.5178462e+02  -1.5422098e+02  -1.4309972e+02  -1.1802927e+02  -9.1051161e+01  -8.4990280e+01  -1.1199894e+02  -1.6956896e+02  -2.3320396e+02  -2.6982874e+02  -2.5288163e+02  -1.7591239e+02  -5.8415404e+01   7.0419874e+01   1.9335118e+02   3.1336706e+02   4.5675512e+02   6.4896631e+02   8.9815151e+02   1.1831298e+03   1.4504709e+03   1.6413492e+03   1.7148619e+03   1.6585842e+03   1.4972648e+03   1.2707001e+03   1.0179638e+03   7.6427472e+02   5.1084404e+02   2.5404817e+02  -8.7831440e+00  -2.6577381e+02  -4.9104769e+02  -6.6249975e+02  -7.6800288e+02  -8.1435168e+02  -8.2228291e+02  -8.1389419e+02  -8.0471030e+02  -7.9653293e+02  -7.8107741e+02  -7.4926327e+02  -6.9492143e+02  -6.2161148e+02  -5.3323174e+02  -4.3714678e+02  -3.3564647e+02  -2.3667197e+02  -1.4687397e+02  -8.1187405e+01  -4.9190322e+01  -5.4552429e+01  -8.8860112e+01  -1.3803675e+02  -1.8246888e+02  -2.1182191e+02  -2.2140301e+02  -2.1582904e+02  -1.9969854e+02  -1.7496149e+02  -1.4172924e+02  -9.9361477e+01  -4.7792085e+01   5.8112027e+00   5.2839732e+01   8.2192217e+01   8.7048031e+01   6.4157856e+01   1.3420343e+01  -5.9370104e+01  -1.4358190e+02  -2.2645296e+02  -2.9317712e+02  -3.3403567e+02  -3.4122804e+02  -3.1510321e+02  -2.5958925e+02  -1.8274963e+02  -9.2537399e+01   3.0506669e+00   9.0120484e+01   1.5498125e+02   1.8486346e+02   1.7398398e+02   1.2679799e+02   5.4413262e+01  -2.3718567e+01  -9.4602418e+01  -1.4568170e+02  -1.7666905e+02  -1.8992390e+02  -1.9115929e+02  -1.8437826e+02  -1.6907468e+02  -1.4385948e+02  -1.0776948e+02  -6.4566913e+01  -2.4333829e+01  -1.6085749e+00  -7.2118332e+00  -4.1784568e+01  -9.3931938e+01  -1.4275817e+02  -1.7050698e+02  -1.6900194e+02  -1.4061630e+02  -9.4584585e+01  -4.4585455e+01   1.3442984e+00   3.9383353e+01   6.3715226e+01   6.9217989e+01   4.4749561e+01  -1.2211333e+01  -9.3701718e+01  -1.8518929e+02  -2.6313212e+02  -3.1193670e+02  -3.2399458e+02  -3.0645883e+02  -2.6945911e+02  -2.1854394e+02  -1.5526394e+02  -7.6951459e+01   1.5114846e+01   1.0786926e+02   1.8059648e+02   2.1270359e+02   1.9484275e+02   1.3220704e+02   4.2957609e+01  -5.1117379e+01  -1.3448714e+02  -2.0299425e+02  -2.5685650e+02  -2.9423292e+02  -3.0810924e+02  -2.8837510e+02  -2.3010225e+02  -1.4316654e+02  -5.0463588e+01   2.0968259e+01   5.2594984e+01   4.3527848e+01   7.9750777e+00  -3.0054957e+01  -5.4726455e+01  -6.1833779e+01  -5.5470098e+01  -4.1599170e+01  -1.9242540e+01   1.4933963e+01   6.3741608e+01   1.1827648e+02   1.6126791e+02   1.7172236e+02   1.3856228e+02   6.6956056e+01  -2.0913007e+01  -9.7794452e+01  -1.4506550e+02  -1.6207105e+02  -1.5989067e+02  -1.5623487e+02  -1.5614340e+02  -1.5118589e+02  -1.2694395e+02  -6.7671777e+01   2.3829017e+01   1.2895266e+02   2.2237482e+02   2.7714371e+02   2.8443477e+02   2.4567781e+02   1.7586758e+02   8.8000530e+01  -9.2754005e+00  -1.0858284e+02  -2.0100016e+02  -2.7515857e+02  -3.1291605e+02  -3.0534429e+02  -2.5087919e+02  -1.6662444e+02  -7.0936043e+01   1.4466620e+01   8.1544894e+01   1.3080054e+02   1.6564965e+02   1.8709657e+02   1.8861607e+02   1.6128830e+02   1.0735741e+02   3.6479694e+01  -2.9023959e+01  -6.8604419e+01  -7.1362012e+01  -4.3221361e+01  -1.3858679e+00   3.2816424e+01   4.7475841e+01   4.2744149e+01   2.9272019e+01   1.7172211e+01   8.3252153e+00  -3.0379294e+00  -2.9410731e+01  -7.2559154e+01  -1.2526996e+02  -1.6598554e+02  -1.7102615e+02  -1.2916744e+02  -4.4449423e+01   6.4773876e+01   1.7140300e+02   2.5052826e+02   2.8841141e+02   2.7917915e+02   2.2393613e+02   1.2809782e+02   2.8711218e+00  -1.3204830e+02  -2.5136185e+02  -3.3033815e+02  -3.5991918e+02  -3.4342189e+02  -2.9556004e+02  -2.3362146e+02  -1.6477391e+02  -8.9615363e+01  -4.2067414e+00   8.5091625e+01   1.6162998e+02   2.0300444e+02   1.9487876e+02   1.3997488e+02   5.9253662e+01  -1.9558444e+01  -7.6835091e+01  -1.0598581e+02  -1.1513496e+02  -1.1626733e+02  -1.1566128e+02  -1.1255677e+02  -1.0013877e+02  -7.6034892e+01  -4.4607189e+01  -1.8350417e+01  -8.6852840e+00  -2.1361670e+01  -5.2574946e+01  -9.4769441e+01  -1.3897849e+02  -1.7545320e+02  -2.0027887e+02  -2.0467718e+02  -1.8174756e+02  -1.2749762e+02  -5.0139487e+01   3.3240736e+01   9.9418634e+01   1.2887435e+02   1.1641907e+02   6.8312169e+01   6.5869165e-01  -7.3004043e+01  -1.4488390e+02  -2.1269783e+02  -2.7674141e+02  -3.2892675e+02  -3.5445133e+02  -3.3781666e+02  -2.7302022e+02  -1.6187849e+02  -2.3582438e+01   1.1928752e+02   2.3696930e+02   3.0959647e+02   3.2281186e+02   2.7866254e+02   1.8963843e+02   8.0858913e+01  -2.6449988e+01  -1.1392963e+02  -1.7718630e+02  -2.1666842e+02  -2.3702275e+02  -2.4072046e+02  -2.2387041e+02  -1.8727492e+02  -1.3390987e+02  -7.5105125e+01  -2.1746137e+01   1.8192269e+01   3.9533531e+01   4.6067731e+01   3.9988716e+01   2.0718280e+01  -6.6570683e+00  -3.5044640e+01  -5.4791977e+01  -5.4653870e+01  -3.1100066e+01   7.0972151e+00   4.2926251e+01   6.3660908e+01   6.0573434e+01   4.1523516e+01   1.3128360e+01  -1.8710368e+01  -5.5037868e+01  -1.0181828e+02  -1.5649940e+02  -2.0591513e+02  -2.3120609e+02  -2.1442855e+02  -1.5656844e+02  -7.1772074e+01   1.9264651e+01   9.6666929e+01   1.5530110e+02   1.9993880e+02   2.3231607e+02   2.4575215e+02   2.2806233e+02   1.6861330e+02   6.9509627e+01  -5.1958271e+01  -1.6835385e+02  -2.5429210e+02  -2.9844174e+02  -2.9901297e+02  -2.6449984e+02  -2.0557086e+02  -1.3014306e+02  -4.6808950e+01   3.4110460e+01   1.0055607e+02   1.4343373e+02   1.5675382e+02   1.4703323e+02   1.2091391e+02   9.0088471e+01   5.9740111e+01   3.6784838e+01   2.7232491e+01   3.3956908e+01   5.7088523e+01   9.3128720e+01   1.2975486e+02   1.5716105e+02   1.6668283e+02   1.6140369e+02   1.4544272e+02   1.2268038e+02   9.2778034e+01   5.2473857e+01  -7.3245246e-01  -5.8281418e+01  -1.0334445e+02  -1.1638359e+02  -8.5194660e+01  -1.3232681e+01   8.3860788e+01   1.8547174e+02   2.7378357e+02   3.3881782e+02   3.7740919e+02   3.8678275e+02   3.6446265e+02   3.0834889e+02   2.1693506e+02   9.8781719e+01  -2.9515650e+01  -1.4554046e+02  -2.2709535e+02  -2.5474082e+02  -2.2358646e+02  -1.4321039e+02  -3.7726355e+01   6.2843861e+01   1.3162252e+02   1.5701582e+02   1.4459485e+02   1.1041832e+02   7.1595235e+01   3.4014680e+01  -4.6893950e+00  -5.1744823e+01  -1.0713295e+02  -1.5943766e+02  -1.9233797e+02  -1.9649860e+02  -1.7272177e+02  -1.3935516e+02  -1.1308111e+02  -1.0531954e+02  -1.1154186e+02  -1.1880537e+02  -1.1877500e+02  -1.1240923e+02  -1.1336646e+02  -1.3105750e+02  -1.6515238e+02  -2.0126602e+02  -2.1651203e+02  -1.9663431e+02  -1.4349744e+02  -7.4828642e+01  -1.3236033e+01   2.8343053e+01   4.5505335e+01   4.3238440e+01   2.3446534e+01  -1.9129296e+01  -8.7771883e+01  -1.8147665e+02  -2.8737436e+02  -3.8266873e+02  -4.4777947e+02  -4.7234175e+02  -4.6073264e+02  -4.2386934e+02  -3.7014201e+02  -3.0248516e+02  -2.1773284e+02  -1.1652017e+02  -1.1068136e+01   7.7793663e+01   1.2705128e+02   1.1915563e+02   5.8803019e+01  -3.8103916e+01  -1.4413092e+02  -2.3533775e+02  -2.9531600e+02  -3.1890516e+02  -3.0831260e+02  -2.7446921e+02  -2.2658418e+02  -1.7199940e+02  -1.1856108e+02  -7.4804250e+01  -4.6272134e+01  -3.6262482e+01  -4.4212370e+01  -6.4816832e+01  -8.8844761e+01  -1.0549126e+02  -1.0701088e+02  -9.5326845e+01  -7.2316574e+01  -4.5533090e+01  -1.7222444e+01   1.0374786e+01   3.7321043e+01   6.0651028e+01   7.2115116e+01   6.1680792e+01   2.4512945e+01  -3.8759445e+01  -1.1756057e+02  -1.9860384e+02  -2.6665417e+02  -3.1152926e+02  -3.2400452e+02  -2.9829641e+02  -2.3486368e+02  -1.4237621e+02  -3.7838546e+01   5.9004294e+01   1.3072986e+02   1.7044120e+02   1.8475466e+02   1.8325031e+02   1.6914994e+02   1.3811299e+02   7.6185025e+01  -2.2928522e+01  -1.5098169e+02  -2.8135637e+02  -3.7793104e+02  -4.1135436e+02  -3.7452927e+02  -2.8324677e+02  -1.6404966e+02  -4.0533282e+01   7.5619938e+01   1.8653729e+02   2.9966745e+02   4.1366307e+02   5.2550362e+02   6.2686034e+02   7.2383747e+02   8.2832894e+02   9.5729411e+02   1.1132644e+03   1.2813483e+03   1.4249088e+03   1.5049657e+03   1.4982441e+03   1.4066710e+03   1.2490448e+03   1.0525662e+03   8.3394344e+02   5.9385868e+02   3.2269567e+02   2.0558735e+01  -3.0125817e+02  -6.0909208e+02  -8.6370516e+02  -1.0307327e+03  -1.0915193e+03  -1.0501789e+03  -9.2884213e+02  -7.6419736e+02  -5.9255055e+02  -4.4671760e+02  -3.4209562e+02  -2.8023568e+02  -2.5116082e+02  -2.4555229e+02  -2.5778474e+02  -2.8665159e+02  -3.3050708e+02  -3.7748257e+02  -4.0842200e+02  -4.0122739e+02  -3.4340258e+02  -2.4271523e+02  -1.2204158e+02  -8.5917360e+00   7.6187842e+01   1.2668903e+02   1.4985755e+02   1.5627824e+02   1.4946898e+02   1.2635740e+02   8.1052103e+01   1.4136919e+01  -6.6207413e+01  -1.4192666e+02  -1.9536815e+02  -2.1289747e+02  -1.9176646e+02  -1.4127513e+02  -7.4394723e+01  -9.1132140e+00   3.5189336e+01   4.6035402e+01   2.3575801e+01  -2.3388780e+01  -7.5098030e+01  -1.1511281e+02  -1.3295637e+02  -1.2981850e+02  -1.1500932e+02  -9.4889324e+01  -6.9091522e+01  -2.9973600e+01   2.6626613e+01   9.5135035e+01   1.6019522e+02   1.9349980e+02   1.7818113e+02   1.0751058e+02  -2.2304349e+00  -1.2670790e+02  -2.3818101e+02  -3.1557941e+02  -3.5267915e+02  -3.5102384e+02  -3.1727680e+02  -2.5678029e+02  -1.7722727e+02  -8.4495552e+01   1.4168501e+01   1.0632389e+02   1.8051656e+02   2.2211900e+02   2.2353776e+02   1.8060421e+02   1.0210089e+02   1.5175629e+00  -1.0074249e+02  -1.8439919e+02  -2.3923359e+02  -2.5860875e+02  -2.5133244e+02  -2.2473649e+02  -1.8898448e+02  -1.5275082e+02  -1.1951975e+02  -9.2814155e+01  -7.4669665e+01  -6.9621363e+01  -8.0374820e+01  -1.0420913e+02  -1.3502777e+02  -1.6385668e+02  -1.7850927e+02  -1.7510794e+02  -1.5017660e+02  -1.0509581e+02  -4.8825179e+01   9.0702372e+00   5.6926805e+01   8.0760715e+01   7.4003218e+01   3.6878429e+01  -2.2833433e+01  -9.3802418e+01  -1.6294887e+02  -2.2492399e+02  -2.7603763e+02  -3.1631921e+02  -3.4036758e+02  -3.3867584e+02  -3.0119902e+02  -2.2405575e+02  -1.1439751e+02   1.0382580e+01   1.2481904e+02   2.0657451e+02   2.4331762e+02   2.3297607e+02   1.8316517e+02   1.0772625e+02   1.8455374e+01  -7.3765725e+01  -1.6012922e+02  -2.3399935e+02  -2.8461207e+02  -3.0310986e+02  -2.8375885e+02  -2.3133413e+02  -1.5679743e+02  -7.9507506e+01  -1.6276673e+01   2.0393332e+01   2.9601498e+01   1.8656307e+01  -2.0816933e+00  -2.6073405e+01  -5.0015941e+01  -7.3531571e+01  -9.4818922e+01  -1.0596534e+02  -1.0068333e+02  -7.4338877e+01  -3.3268988e+01   9.4862836e+00   3.7804361e+01   3.9155215e+01   1.0020044e+01  -4.1214800e+01  -1.0706650e+02  -1.7452105e+02  -2.3627590e+02  -2.8945750e+02  -3.2652353e+02  -3.4202088e+02  -3.2688727e+02  -2.7605741e+02  -1.8824820e+02  -7.3935887e+01   5.0325247e+01   1.5797777e+02   2.2459554e+02   2.3072714e+02   1.7614241e+02   7.3270500e+01  -4.9249887e+01  -1.6484302e+02  -2.5389045e+02  -3.1194446e+02  -3.4890566e+02  -3.7381667e+02  -3.8698788e+02  -3.8028261e+02  -3.4552737e+02  -2.7615647e+02  -1.8432487e+02  -9.1805894e+01  -2.2022063e+01   9.4723479e+00   1.8190943e+00  -3.3122804e+01  -7.7541105e+01  -1.2306584e+02  -1.6253733e+02  -1.9683074e+02  -2.2441689e+02  -2.3939237e+02  -2.3680979e+02  -2.1826559e+02  -1.8883526e+02  -1.6256203e+02  -1.5378294e+02  -1.6860410e+02  -2.0680905e+02  -2.5740557e+02  -3.0890090e+02  -3.5026402e+02  -3.7740803e+02  -3.8892978e+02  -3.8279331e+02  -3.5864816e+02  -3.1353251e+02  -2.4681577e+02  -1.6636560e+02  -8.4060330e+01  -1.8884800e+01   1.3075163e+01   3.4000050e+00  -4.5440833e+01  -1.2463069e+02  -2.1640670e+02  -3.0727300e+02  -3.8584193e+02  -4.4501330e+02  -4.8014208e+02  -4.8484383e+02  -4.5614474e+02  -3.9678848e+02  -3.1265006e+02  -2.1535241e+02  -1.2031144e+02  -4.1526685e+01   1.3525144e+01   3.8557573e+01   3.4442099e+01   3.3337889e+00  -4.9046510e+01  -1.1483553e+02  -1.8290418e+02  -2.4286438e+02  -2.8686834e+02  -3.1290448e+02  -3.2238643e+02  -3.2095684e+02  -3.1356443e+02  -3.0199774e+02  -2.8914983e+02  -2.7533083e+02  -2.6193109e+02  -2.5167136e+02  -2.4756817e+02  -2.4861294e+02  -2.4803445e+02  -2.4090872e+02  -2.2181696e+02  -1.9124225e+02  -1.5144051e+02  -1.0861406e+02  -6.4339529e+01  -2.4336041e+01   8.2212357e+00   2.4550997e+01   1.5953557e+01  -2.3968396e+01  -9.3785789e+01  -1.8352955e+02  -2.7576382e+02  -3.5228654e+02  -4.0318776e+02  -4.2892999e+02  -4.3110496e+02  -4.1357019e+02  -3.7276702e+02  -3.0215552e+02  -2.0284669e+02  -8.2644825e+01   3.3188474e+01   1.2009118e+02   1.5993250e+02   1.4704375e+02   9.1387678e+01   8.8470065e+00  -8.7243125e+01  -1.8607175e+02  -2.7851050e+02  -3.5210142e+02  -3.9555566e+02  -3.9753061e+02  -3.6157771e+02  -3.0029329e+02  -2.3383831e+02  -1.7709571e+02  -1.3778977e+02  -1.1389119e+02  -1.0057519e+02  -9.6898553e+01  -1.0523205e+02  -1.2635168e+02  -1.5497655e+02  -1.8046479e+02  -1.9135348e+02  -1.8345926e+02  -1.6033713e+02  -1.3201154e+02  -1.0502608e+02  -8.1982364e+01  -6.5832495e+01  -5.9237292e+01  -7.0295376e+01  -1.0788586e+02  -1.7176260e+02  -2.5040640e+02  -3.2250764e+02  -3.6683772e+02  -3.7119400e+02  -3.3808326e+02  -2.7384590e+02  -1.9201338e+02  -9.8816489e+01  -1.9054188e+00   9.0524900e+01   1.6990731e+02   2.2242231e+02   2.3871937e+02   2.1295560e+02   1.4597799e+02   4.2614721e+01  -8.5813036e+01  -2.2052048e+02  -3.3450300e+02  -4.0063440e+02  -3.9828521e+02  -3.2820787e+02  -2.0955806e+02  -7.7064747e+01   3.7499106e+01   1.1527988e+02   1.5540890e+02   1.7182770e+02   1.7657751e+02   1.7335433e+02   1.5725906e+02   1.1881102e+02   5.9417562e+01  -1.2417667e+01  -7.7825460e+01  -1.2093579e+02  -1.3064090e+02  -1.0863218e+02  -6.2717062e+01  -9.5519828e+00   3.3968940e+01   5.0367877e+01   3.2971444e+01  -2.0228679e+01  -9.6409130e+01  -1.7848524e+02  -2.4732742e+02  -2.9141507e+02  -3.0663700e+02  -2.9491547e+02  -2.6135601e+02  -2.0970238e+02  -1.3999329e+02  -5.8454844e+01   2.6204589e+01   9.5822753e+01   1.3180058e+02   1.2176755e+02   6.3608178e+01  -3.3335170e+01  -1.4893327e+02  -2.6472056e+02  -3.6190031e+02  -4.3358639e+02  -4.7692181e+02  -4.8873319e+02  -4.6845475e+02  -4.1517477e+02  -3.3080072e+02  -2.2548314e+02  -1.1855801e+02  -3.3343837e+01   1.3850288e+01   1.5188537e+01  -1.9981289e+01  -7.5268427e+01  -1.3218552e+02  -1.8072207e+02  -2.2226536e+02  -2.6053652e+02  -2.9821482e+02  -3.2898291e+02  -3.4383188e+02  -3.3259559e+02  -2.9481916e+02  -2.4318073e+02  -1.9376112e+02  -1.6547831e+02  -1.6697046e+02  -1.9412735e+02  -2.3235230e+02  -2.6850355e+02  -2.8934059e+02  -2.9120926e+02  -2.7565352e+02  -2.4765268e+02  -2.0924638e+02  -1.6341717e+02  -1.1123077e+02  -5.6367922e+01  -6.2919016e+00   2.6633924e+01   2.8748384e+01  -1.2874178e+01  -9.6156347e+01  -2.0958548e+02  -3.2654481e+02  -4.2220513e+02  -4.7767523e+02  -4.8906113e+02  -4.6309361e+02  -4.1305087e+02  -3.4581652e+02  -2.6405422e+02  -1.6962498e+02  -6.9497731e+01   2.1512678e+01   8.4817970e+01   1.0860896e+02   8.9643795e+01   3.7154430e+01  -3.5101587e+01  -1.1547687e+02  -1.9348023e+02  -2.6289263e+02  -3.1260656e+02  -3.3489547e+02  -3.2691966e+02  -2.9740775e+02  -2.5759246e+02  -2.2160473e+02  -1.9261744e+02  -1.6706750e+02  -1.3926375e+02  -1.1161473e+02  -9.7597115e+01  -1.0845246e+02  -1.4647097e+02  -1.9861718e+02  -2.3819339e+02  -2.4223188e+02  -2.0635641e+02  -1.4495001e+02  -8.4591665e+01  -4.6856953e+01  -4.1694523e+01  -6.2669339e+01  -9.6392891e+01  -1.3243206e+02  -1.6390894e+02  -1.8788575e+02  -2.0049250e+02  -1.9462349e+02  -1.6092616e+02  -8.8748431e+01   2.8289268e+01   1.9337448e+02   4.0440720e+02   6.5676473e+02   9.3581917e+02   1.2179731e+03   1.4668897e+03   1.6445576e+03   1.7178563e+03   1.6703641e+03   1.5132791e+03   1.2784616e+03   1.0057558e+03   7.2586230e+02   4.5310479e+02   1.8245109e+02  -9.4898815e+01  -3.7614025e+02  -6.4062175e+02  -8.5379221e+02  -9.8552944e+02  -1.0281407e+03  -9.9737466e+02  -9.2977605e+02  -8.6364721e+02  -8.1877485e+02  -7.9494318e+02  -7.7412028e+02  -7.3508993e+02  -6.6422722e+02  -5.6409752e+02  -4.4859416e+02  -3.3641728e+02  -2.4181585e+02  -1.7564930e+02  -1.3794640e+02  -1.2823151e+02  -1.4392953e+02  -1.7914869e+02  -2.2407426e+02  -2.6709745e+02  -2.9967292e+02  -3.1576653e+02  -3.1664675e+02  -3.0670646e+02  -2.9099005e+02  -2.6614535e+02  -2.2461419e+02  -1.5700351e+02  -6.8719556e+01   2.6924998e+01   1.0182548e+02   1.3307353e+02   1.1148523e+02   4.2406930e+01  -5.4346454e+01  -1.5542470e+02  -2.4760669e+02  -3.2493396e+02  -3.8597364e+02  -4.2584793e+02  -4.3470534e+02  -4.0440022e+02  -3.3527665e+02  -2.4309968e+02  -1.4631528e+02  -6.7928817e+01  -1.6349890e+01   1.0447027e+01   2.1155484e+01   